# TBinMid=0.55 ssec TBinWidth=0.1 ss EBinWidth=0.2MeV Fluence at Earth for this timebin in neutrinos per cm^2
# E(GeV)	NuE	NuMu	NuTau	aNuE	aNuMu	aNuTau
   1.38589050E-13   4.13719740E-11   2.24569516E-11   2.24569516E-11   3.24819170E-11   8.55405339E-11   8.55405339E-11
   2.00000000E-04   1.65689774E+07   2.00005126E+07   2.00005126E+07   7.07140309E+06   1.43344424E+07   1.43344424E+07
   4.00000000E-04   6.49754381E+07   8.21133085E+07   8.21133085E+07   3.05985921E+07   5.51287297E+07   5.51287297E+07
   6.00000000E-04   1.42558808E+08   1.84785302E+08   1.84785302E+08   7.25705962E+07   1.20125258E+08   1.20125258E+08
   8.00000000E-04   2.46364152E+08   3.24803542E+08   3.24803542E+08   1.33807665E+08   2.07153170E+08   2.07153170E+08
   1.00000000E-03   3.73432849E+08   4.98468955E+08   4.98468955E+08   2.14435528E+08   3.14077727E+08   3.14077727E+08
   1.20000000E-03   5.20900168E+08   7.01955476E+08   7.01955476E+08   3.14108610E+08   4.38821391E+08   4.38821391E+08
   1.40000000E-03   6.86038299E+08   9.31474991E+08   9.31474991E+08   4.32146135E+08   5.79380685E+08   5.79380685E+08
   1.60000000E-03   8.66276400E+08   1.18336428E+09   1.18336428E+09   5.67625421E+08   7.33837461E+08   7.33837461E+08
   1.80000000E-03   1.05920905E+09   1.45413326E+09   1.45413326E+09   7.19450095E+08   9.00365973E+08   9.00365973E+08
   2.00000000E-03   1.26259819E+09   1.74049162E+09   1.74049162E+09   8.86401951E+08   1.07723696E+09   1.07723696E+09
   2.20000000E-03   1.47437122E+09   2.03936230E+09   2.03936230E+09   1.06718136E+09   1.26281958E+09   1.26281958E+09
   2.40000000E-03   1.69261677E+09   2.34788672E+09   2.34788672E+09   1.26043922E+09   1.45558174E+09   1.45558174E+09
   2.60000000E-03   1.91557890E+09   2.66342454E+09   2.66342454E+09   1.46480252E+09   1.65408935E+09   1.65408935E+09
   2.80000000E-03   2.14165052E+09   2.98354977E+09   2.98354977E+09   1.67889476E+09   1.85700459E+09   1.85700459E+09
   3.00000000E-03   2.36936626E+09   3.30604454E+09   3.30604454E+09   1.90135242E+09   2.06308369E+09   2.06308369E+09
   3.20000000E-03   2.59739503E+09   3.62889108E+09   3.62889108E+09   2.13083808E+09   2.27117412E+09   2.27117412E+09
   3.40000000E-03   2.82453256E+09   3.95026286E+09   3.95026286E+09   2.36605089E+09   2.48021152E+09   2.48021152E+09
   3.60000000E-03   3.04969398E+09   4.26851497E+09   4.26851497E+09   2.60573474E+09   2.68921634E+09   2.68921634E+09
   3.80000000E-03   3.27190644E+09   4.58217419E+09   4.58217419E+09   2.84868466E+09   2.89729034E+09   2.89729034E+09
   4.00000000E-03   3.49030207E+09   4.88992901E+09   4.88992901E+09   3.09375157E+09   3.10361300E+09   3.10361300E+09
   4.20000000E-03   3.70411100E+09   5.19061959E+09   5.19061959E+09   3.33984580E+09   3.30743786E+09   3.30743786E+09
   4.40000000E-03   3.91265476E+09   5.48322792E+09   5.48322792E+09   3.58593947E+09   3.50808883E+09   3.50808883E+09
   4.60000000E-03   4.11533988E+09   5.76686827E+09   5.76686827E+09   3.83106795E+09   3.70495659E+09   3.70495659E+09
   4.80000000E-03   4.31165184E+09   6.04077786E+09   6.04077786E+09   4.07433053E+09   3.89749496E+09   3.89749496E+09
   5.00000000E-03   4.50114926E+09   6.30430792E+09   6.30430792E+09   4.31489053E+09   4.08521735E+09   4.08521735E+09
   5.20000000E-03   4.68345838E+09   6.55691507E+09   6.55691507E+09   4.55197475E+09   4.26769335E+09   4.26769335E+09
   5.40000000E-03   4.85826786E+09   6.79815320E+09   6.79815320E+09   4.78487254E+09   4.44454529E+09   4.44454529E+09
   5.60000000E-03   5.02532383E+09   7.02766560E+09   7.02766560E+09   5.01293452E+09   4.61544507E+09   4.61544507E+09
   5.80000000E-03   5.18442526E+09   7.24517761E+09   7.24517761E+09   5.23557095E+09   4.78011090E+09   4.78011090E+09
   6.00000000E-03   5.33541956E+09   7.45048962E+09   7.45048962E+09   5.45224991E+09   4.93830436E+09   4.93830436E+09
   6.20000000E-03   5.47819840E+09   7.64347047E+09   7.64347047E+09   5.66249522E+09   5.08982738E+09   5.08982738E+09
   6.40000000E-03   5.61269391E+09   7.82405121E+09   7.82405121E+09   5.86588431E+09   5.23451951E+09   5.23451951E+09
   6.60000000E-03   5.73887500E+09   7.99221933E+09   7.99221933E+09   6.06204592E+09   5.37225518E+09   5.37225518E+09
   6.80000000E-03   5.85674392E+09   8.14801321E+09   8.14801321E+09   6.25065771E+09   5.50294116E+09   5.50294116E+09
   7.00000000E-03   5.96633312E+09   8.29151706E+09   8.29151706E+09   6.43144391E+09   5.62651410E+09   5.62651410E+09
   7.20000000E-03   6.06770225E+09   8.42285612E+09   8.42285612E+09   6.60417280E+09   5.74293820E+09   5.74293820E+09
   7.40000000E-03   6.16093536E+09   8.54219217E+09   8.54219217E+09   6.76865435E+09   5.85220300E+09   5.85220300E+09
   7.60000000E-03   6.24613831E+09   8.64971944E+09   8.64971944E+09   6.92473778E+09   5.95432126E+09   5.95432126E+09
   7.80000000E-03   6.32343639E+09   8.74566070E+09   8.74566070E+09   7.07230912E+09   6.04932700E+09   6.04932700E+09
   8.00000000E-03   6.39297204E+09   8.83026370E+09   8.83026370E+09   7.21128892E+09   6.13727357E+09   6.13727357E+09
   8.20000000E-03   6.45490276E+09   8.90379785E+09   8.90379785E+09   7.34162988E+09   6.21823193E+09   6.21823193E+09
   8.40000000E-03   6.50939922E+09   8.96655120E+09   8.96655120E+09   7.46331465E+09   6.29228890E+09   6.29228890E+09
   8.60000000E-03   6.55664345E+09   9.01882753E+09   9.01882753E+09   7.57635365E+09   6.35954563E+09   6.35954563E+09
   8.80000000E-03   6.59682717E+09   9.06094383E+09   9.06094383E+09   7.68078292E+09   6.42011611E+09   6.42011611E+09
   9.00000000E-03   6.63015030E+09   9.09322788E+09   9.09322788E+09   7.77666213E+09   6.47412574E+09   6.47412574E+09
   9.20000000E-03   6.65681954E+09   9.11601605E+09   9.11601605E+09   7.86407258E+09   6.52171004E+09   6.52171004E+09
   9.40000000E-03   6.67704705E+09   9.12965127E+09   9.12965127E+09   7.94311536E+09   6.56301344E+09   6.56301344E+09
   9.60000000E-03   6.69104934E+09   9.13448127E+09   9.13448127E+09   8.01390952E+09   6.59818809E+09   6.59818809E+09
   9.80000000E-03   6.69904610E+09   9.13085683E+09   9.13085683E+09   8.07659040E+09   6.62739285E+09   6.62739285E+09
   1.00000000E-02   6.70125925E+09   9.11913032E+09   9.11913032E+09   8.13130795E+09   6.65079221E+09   6.65079221E+09
   1.02000000E-02   6.69791205E+09   9.09965430E+09   9.09965430E+09   8.17822521E+09   6.66855545E+09   6.66855545E+09
   1.04000000E-02   6.68922822E+09   9.07278030E+09   9.07278030E+09   8.21751682E+09   6.68085570E+09   6.68085570E+09
   1.06000000E-02   6.67543125E+09   9.03885768E+09   9.03885768E+09   8.24936766E+09   6.68786919E+09   6.68786919E+09
   1.08000000E-02   6.65674370E+09   8.99823266E+09   8.99823266E+09   8.27397151E+09   6.68977450E+09   6.68977450E+09
   1.10000000E-02   6.63338657E+09   8.95124740E+09   8.95124740E+09   8.29152984E+09   6.68675186E+09   6.68675186E+09
   1.12000000E-02   6.60557879E+09   8.89823924E+09   8.89823924E+09   8.30225062E+09   6.67898252E+09   6.67898252E+09
   1.14000000E-02   6.57353670E+09   8.83953996E+09   8.83953996E+09   8.30634728E+09   6.66664819E+09   6.66664819E+09
   1.16000000E-02   6.53747363E+09   8.77547523E+09   8.77547523E+09   8.30403764E+09   6.64993048E+09   6.64993048E+09
   1.18000000E-02   6.49759950E+09   8.70636401E+09   8.70636401E+09   8.29554299E+09   6.62901047E+09   6.62901047E+09
   1.20000000E-02   6.45412049E+09   8.63251814E+09   8.63251814E+09   8.28108721E+09   6.60406817E+09   6.60406817E+09
   1.22000000E-02   6.40723873E+09   8.55424190E+09   8.55424190E+09   8.26089592E+09   6.57528221E+09   6.57528221E+09
   1.24000000E-02   6.35715207E+09   8.47183175E+09   8.47183175E+09   8.23519577E+09   6.54282942E+09   6.54282942E+09
   1.26000000E-02   6.30405380E+09   8.38557598E+09   8.38557598E+09   8.20421367E+09   6.50688452E+09   6.50688452E+09
   1.28000000E-02   6.24813252E+09   8.29575455E+09   8.29575455E+09   8.16817621E+09   6.46761981E+09   6.46761981E+09
   1.30000000E-02   6.18957196E+09   8.20263888E+09   8.20263888E+09   8.12730901E+09   6.42520492E+09   6.42520492E+09
   1.32000000E-02   6.12855085E+09   8.10649174E+09   8.10649174E+09   8.08183621E+09   6.37980657E+09   6.37980657E+09
   1.34000000E-02   6.06524282E+09   8.00756716E+09   8.00756716E+09   8.03197996E+09   6.33158833E+09   6.33158833E+09
   1.36000000E-02   5.99981633E+09   7.90611038E+09   7.90611038E+09   7.97795995E+09   6.28071049E+09   6.28071049E+09
   1.38000000E-02   5.93243459E+09   7.80235781E+09   7.80235781E+09   7.91999304E+09   6.22732986E+09   6.22732986E+09
   1.40000000E-02   5.86325555E+09   7.69653708E+09   7.69653708E+09   7.85829286E+09   6.17159964E+09   6.17159964E+09
   1.42000000E-02   5.79243188E+09   7.58886704E+09   7.58886704E+09   7.79306948E+09   6.11366933E+09   6.11366933E+09
   1.44000000E-02   5.72011095E+09   7.47955785E+09   7.47955785E+09   7.72452914E+09   6.05368458E+09   6.05368458E+09
   1.46000000E-02   5.64643486E+09   7.36881103E+09   7.36881103E+09   7.65287396E+09   5.99178718E+09   5.99178718E+09
   1.48000000E-02   5.57154049E+09   7.25681960E+09   7.25681960E+09   7.57830172E+09   5.92811492E+09   5.92811492E+09
   1.50000000E-02   5.49555948E+09   7.14376819E+09   7.14376819E+09   7.50100568E+09   5.86280161E+09   5.86280161E+09
   1.52000000E-02   5.41861835E+09   7.02983316E+09   7.02983316E+09   7.42117438E+09   5.79597700E+09   5.79597700E+09
   1.54000000E-02   5.34083851E+09   6.91518275E+09   6.91518275E+09   7.33899152E+09   5.72776679E+09   5.72776679E+09
   1.56000000E-02   5.26233637E+09   6.79997727E+09   6.79997727E+09   7.25463581E+09   5.65829262E+09   5.65829262E+09
   1.58000000E-02   5.18322338E+09   6.68436921E+09   6.68436921E+09   7.16828091E+09   5.58767202E+09   5.58767202E+09
   1.60000000E-02   5.10360615E+09   6.56850350E+09   6.56850350E+09   7.08009532E+09   5.51601851E+09   5.51601851E+09
   1.62000000E-02   5.02358652E+09   6.45251760E+09   6.45251760E+09   6.99024236E+09   5.44344155E+09   5.44344155E+09
   1.64000000E-02   4.94326167E+09   6.33654179E+09   6.33654179E+09   6.89888008E+09   5.37004660E+09   5.37004660E+09
   1.66000000E-02   4.86272422E+09   6.22069927E+09   6.22069927E+09   6.80616128E+09   5.29593517E+09   5.29593517E+09
   1.68000000E-02   4.78206230E+09   6.10510644E+09   6.10510644E+09   6.71223350E+09   5.22120482E+09   5.22120482E+09
   1.70000000E-02   4.70135972E+09   5.98987304E+09   5.98987304E+09   6.61723899E+09   5.14594925E+09   5.14594925E+09
   1.72000000E-02   4.62069604E+09   5.87510240E+09   5.87510240E+09   6.52131480E+09   5.07025836E+09   5.07025836E+09
   1.74000000E-02   4.54014667E+09   5.76089161E+09   5.76089161E+09   6.42459274E+09   4.99421827E+09   4.99421827E+09
   1.76000000E-02   4.45978303E+09   5.64733175E+09   5.64733175E+09   6.32719945E+09   4.91791142E+09   4.91791142E+09
   1.78000000E-02   4.37967263E+09   5.53450808E+09   5.53450808E+09   6.22925650E+09   4.84141663E+09   4.84141663E+09
   1.80000000E-02   4.29987919E+09   5.42250025E+09   5.42250025E+09   6.13088036E+09   4.76480918E+09   4.76480918E+09
   1.82000000E-02   4.22046278E+09   5.31138249E+09   5.31138249E+09   6.03218255E+09   4.68816086E+09   4.68816086E+09
   1.84000000E-02   4.14147989E+09   5.20122383E+09   5.20122383E+09   5.93326968E+09   4.61154007E+09   4.61154007E+09
   1.86000000E-02   4.06298360E+09   5.09208829E+09   5.09208829E+09   5.83424355E+09   4.53501190E+09   4.53501190E+09
   1.88000000E-02   3.98502365E+09   4.98403506E+09   4.98403506E+09   5.73520122E+09   4.45863818E+09   4.45863818E+09
   1.90000000E-02   3.90764658E+09   4.87711873E+09   4.87711873E+09   5.63623512E+09   4.38247763E+09   4.38247763E+09
   1.92000000E-02   3.83089584E+09   4.77138943E+09   4.77138943E+09   5.53743315E+09   4.30658586E+09   4.30658586E+09
   1.94000000E-02   3.75481190E+09   4.66689306E+09   4.66689306E+09   5.43887875E+09   4.23101551E+09   4.23101551E+09
   1.96000000E-02   3.67943233E+09   4.56367144E+09   4.56367144E+09   5.34065107E+09   4.15581633E+09   4.15581633E+09
   1.98000000E-02   3.60479198E+09   4.46176250E+09   4.46176250E+09   5.24282501E+09   4.08103524E+09   4.08103524E+09
   2.00000000E-02   3.53092302E+09   4.36120046E+09   4.36120046E+09   5.14547137E+09   4.00671643E+09   4.00671643E+09
   2.02000000E-02   3.45785506E+09   4.26201599E+09   4.26201599E+09   5.04865694E+09   3.93290146E+09   3.93290146E+09
   2.04000000E-02   3.38561528E+09   4.16423638E+09   4.16423638E+09   4.95244465E+09   3.85962932E+09   3.85962932E+09
   2.06000000E-02   3.31422851E+09   4.06788570E+09   4.06788570E+09   4.85689362E+09   3.78693651E+09   3.78693651E+09
   2.08000000E-02   3.24371732E+09   3.97298495E+09   3.97298495E+09   4.76205935E+09   3.71485716E+09   3.71485716E+09
   2.10000000E-02   3.17410214E+09   3.87955222E+09   3.87955222E+09   4.66799377E+09   3.64342307E+09   3.64342307E+09
   2.12000000E-02   3.10540133E+09   3.78760284E+09   3.78760284E+09   4.57474538E+09   3.57266381E+09   3.57266381E+09
   2.14000000E-02   3.03763129E+09   3.69714949E+09   3.69714949E+09   4.48235939E+09   3.50260683E+09   3.50260683E+09
   2.16000000E-02   2.97080654E+09   3.60820241E+09   3.60820241E+09   4.39087778E+09   3.43327747E+09   3.43327747E+09
   2.18000000E-02   2.90493982E+09   3.52076944E+09   3.52076944E+09   4.30033945E+09   3.36469910E+09   3.36469910E+09
   2.20000000E-02   2.84004215E+09   3.43485624E+09   3.43485624E+09   4.21078033E+09   3.29689317E+09   3.29689317E+09
   2.22000000E-02   2.77612292E+09   3.35046634E+09   3.35046634E+09   4.12223346E+09   3.22987928E+09   3.22987928E+09
   2.24000000E-02   2.71319001E+09   3.26760131E+09   3.26760131E+09   4.03472914E+09   3.16367528E+09   3.16367528E+09
   2.26000000E-02   2.65124979E+09   3.18626084E+09   3.18626084E+09   3.94829501E+09   3.09829731E+09   3.09829731E+09
   2.28000000E-02   2.59030727E+09   3.10644290E+09   3.10644290E+09   3.86295617E+09   3.03375989E+09   3.03375989E+09
   2.30000000E-02   2.53036612E+09   3.02814379E+09   3.02814379E+09   3.77873525E+09   2.97007598E+09   2.97007598E+09
   2.32000000E-02   2.47142877E+09   2.95135827E+09   2.95135827E+09   3.69565257E+09   2.90725706E+09   2.90725706E+09
   2.34000000E-02   2.41349647E+09   2.87607968E+09   2.87607968E+09   3.61372618E+09   2.84531319E+09   2.84531319E+09
   2.36000000E-02   2.35656934E+09   2.80229999E+09   2.80229999E+09   3.53297200E+09   2.78425305E+09   2.78425305E+09
   2.38000000E-02   2.30064647E+09   2.73000994E+09   2.73000994E+09   3.45340389E+09   2.72408404E+09   2.72408404E+09
   2.40000000E-02   2.24572593E+09   2.65919908E+09   2.65919908E+09   3.37503376E+09   2.66481232E+09   2.66481232E+09
   2.42000000E-02   2.19180487E+09   2.58985588E+09   2.58985588E+09   3.29787164E+09   2.60644287E+09   2.60644287E+09
   2.44000000E-02   2.13887956E+09   2.52196783E+09   2.52196783E+09   3.22192580E+09   2.54897956E+09   2.54897956E+09
   2.46000000E-02   2.08694544E+09   2.45552147E+09   2.45552147E+09   3.14720279E+09   2.49242518E+09   2.49242518E+09
   2.48000000E-02   2.03599720E+09   2.39050249E+09   2.39050249E+09   3.07370758E+09   2.43678152E+09   2.43678152E+09
   2.50000000E-02   1.98602879E+09   2.32689580E+09   2.32689580E+09   3.00144358E+09   2.38204940E+09   2.38204940E+09
   2.52000000E-02   1.93703348E+09   2.26468560E+09   2.26468560E+09   2.93041277E+09   2.32822874E+09   2.32822874E+09
   2.54000000E-02   1.88900392E+09   2.20385541E+09   2.20385541E+09   2.86061576E+09   2.27531859E+09   2.27531859E+09
   2.56000000E-02   1.84193220E+09   2.14438820E+09   2.14438820E+09   2.79205185E+09   2.22331721E+09   2.22331721E+09
   2.58000000E-02   1.79580983E+09   2.08626637E+09   2.08626637E+09   2.72471911E+09   2.17222207E+09   2.17222207E+09
   2.60000000E-02   1.75062785E+09   2.02947185E+09   2.02947185E+09   2.65861446E+09   2.12202991E+09   2.12202991E+09
   2.62000000E-02   1.70637683E+09   1.97398614E+09   1.97398614E+09   2.59373373E+09   2.07273683E+09   2.07273683E+09
   2.64000000E-02   1.66304692E+09   1.91979036E+09   1.91979036E+09   2.53007170E+09   2.02433823E+09   2.02433823E+09
   2.66000000E-02   1.62062787E+09   1.86686530E+09   1.86686530E+09   2.46762222E+09   1.97682897E+09   1.97682897E+09
   2.68000000E-02   1.57910908E+09   1.81519147E+09   1.81519147E+09   2.40637822E+09   1.93020331E+09   1.93020331E+09
   2.70000000E-02   1.53847964E+09   1.76474911E+09   1.76474911E+09   2.34633178E+09   1.88445499E+09   1.88445499E+09
   2.72000000E-02   1.49872834E+09   1.71551827E+09   1.71551827E+09   2.28747419E+09   1.83957727E+09   1.83957727E+09
   2.74000000E-02   1.45984372E+09   1.66747883E+09   1.66747883E+09   2.22979602E+09   1.79556293E+09   1.79556293E+09
   2.76000000E-02   1.42181405E+09   1.62061053E+09   1.62061053E+09   2.17328713E+09   1.75240436E+09   1.75240436E+09
   2.78000000E-02   1.38462744E+09   1.57489301E+09   1.57489301E+09   2.11793676E+09   1.71009352E+09   1.71009352E+09
   2.80000000E-02   1.34827180E+09   1.53030584E+09   1.53030584E+09   2.06373356E+09   1.66862203E+09   1.66862203E+09
   2.82000000E-02   1.31273486E+09   1.48682855E+09   1.48682855E+09   2.01066564E+09   1.62798117E+09   1.62798117E+09
   2.84000000E-02   1.27800426E+09   1.44444066E+09   1.44444066E+09   1.95872061E+09   1.58816191E+09   1.58816191E+09
   2.86000000E-02   1.24406748E+09   1.40312170E+09   1.40312170E+09   1.90788562E+09   1.54915493E+09   1.54915493E+09
   2.88000000E-02   1.21091193E+09   1.36285123E+09   1.36285123E+09   1.85814741E+09   1.51095067E+09   1.51095067E+09
   2.90000000E-02   1.17852496E+09   1.32360889E+09   1.32360889E+09   1.80949234E+09   1.47353933E+09   1.47353933E+09
   2.92000000E-02   1.14689384E+09   1.28537438E+09   1.28537438E+09   1.76190642E+09   1.43691088E+09   1.43691088E+09
   2.94000000E-02   1.11600581E+09   1.24812750E+09   1.24812750E+09   1.71537536E+09   1.40105514E+09   1.40105514E+09
   2.96000000E-02   1.08584810E+09   1.21184819E+09   1.21184819E+09   1.66988460E+09   1.36596174E+09   1.36596174E+09
   2.98000000E-02   1.05640791E+09   1.17651651E+09   1.17651651E+09   1.62541934E+09   1.33162016E+09   1.33162016E+09
   3.00000000E-02   1.02767247E+09   1.14211268E+09   1.14211268E+09   1.58196456E+09   1.29801975E+09   1.29801975E+09
   3.02000000E-02   9.99629016E+08   1.10861707E+09   1.10861707E+09   1.53950507E+09   1.26514977E+09   1.26514977E+09
   3.04000000E-02   9.72264831E+08   1.07601024E+09   1.07601024E+09   1.49802549E+09   1.23299937E+09   1.23299937E+09
   3.06000000E-02   9.45567235E+08   1.04427295E+09   1.04427295E+09   1.45751036E+09   1.20155762E+09   1.20155762E+09
   3.08000000E-02   9.19523608E+08   1.01338615E+09   1.01338615E+09   1.41794408E+09   1.17081353E+09   1.17081353E+09
   3.10000000E-02   8.94121399E+08   9.83331018E+08   9.83331018E+08   1.37931098E+09   1.14075607E+09   1.14075607E+09
   3.12000000E-02   8.69348131E+08   9.54088935E+08   9.54088935E+08   1.34159533E+09   1.11137418E+09   1.11137418E+09
   3.14000000E-02   8.45191416E+08   9.25641526E+08   9.25641526E+08   1.30478135E+09   1.08265676E+09   1.08265676E+09
   3.16000000E-02   8.21638960E+08   8.97970653E+08   8.97970653E+08   1.26885326E+09   1.05459271E+09   1.05459271E+09
   3.18000000E-02   7.98678571E+08   8.71058424E+08   8.71058424E+08   1.23379526E+09   1.02717095E+09   1.02717095E+09
   3.20000000E-02   7.76298166E+08   8.44887196E+08   8.44887196E+08   1.19959158E+09   1.00038038E+09   1.00038038E+09
   3.22000000E-02   7.54485780E+08   8.19439586E+08   8.19439586E+08   1.16622647E+09   9.74209962E+08   9.74209962E+08
   3.24000000E-02   7.33229569E+08   7.94698471E+08   7.94698471E+08   1.13368424E+09   9.48648667E+08   9.48648667E+08
   3.26000000E-02   7.12517817E+08   7.70646994E+08   7.70646994E+08   1.10194926E+09   9.23685519E+08   9.23685519E+08
   3.28000000E-02   6.92338942E+08   7.47268569E+08   7.47268569E+08   1.07100596E+09   8.99309592E+08   8.99309592E+08
