# TBinMid=1.85 ssec TBinWidth=0.1 ss EBinWidth=0.2MeV Fluence at Earth for this timebin in neutrinos per cm^2
# E(GeV)	NuE	NuMu	NuTau	aNuE	aNuMu	aNuTau
   1.38589050E-13   9.68137244E-16   5.06078070E-16   5.06078070E-16   4.93061003E-15   1.29846410E-14   1.29846410E-14
   2.00000000E-04   4.00929201E+06   3.19927741E+06   3.19927741E+06   2.10707865E+06   4.20966509E+06   4.20966509E+06
   4.00000000E-04   1.96934947E+07   1.75080401E+07   1.75080401E+07   1.06733595E+07   1.92797909E+07   1.92797909E+07
   6.00000000E-04   4.89684908E+07   4.66191318E+07   4.66191318E+07   2.74209390E+07   4.61986411E+07   4.61986411E+07
   8.00000000E-04   9.21290105E+07   9.21667038E+07   9.21667038E+07   5.31622558E+07   8.48742652E+07   8.48742652E+07
   1.00000000E-03   1.48758912E+08   1.54617322E+08   1.54617322E+08   8.82075029E+07   1.34774641E+08   1.34774641E+08
   1.20000000E-03   2.18051029E+08   2.33667230E+08   2.33667230E+08   1.32530708E+08   1.95136730E+08   1.95136730E+08
   1.40000000E-03   2.98972567E+08   3.28485867E+08   3.28485867E+08   1.85867793E+08   2.65070797E+08   2.65070797E+08
   1.60000000E-03   3.90364310E+08   4.37883281E+08   4.37883281E+08   2.47783075E+08   3.43621558E+08   3.43621558E+08
   1.80000000E-03   4.91004953E+08   5.60431799E+08   5.60431799E+08   3.17717702E+08   4.29807221E+08   4.29807221E+08
   2.00000000E-03   5.99654692E+08   6.94557066E+08   6.94557066E+08   3.95026396E+08   5.22645642E+08   5.22645642E+08
   2.20000000E-03   7.15085480E+08   8.38607163E+08   8.38607163E+08   4.79006018E+08   6.21172331E+08   6.21172331E+08
   2.40000000E-03   8.36102191E+08   9.90905342E+08   9.90905342E+08   5.68918072E+08   7.24452957E+08   7.24452957E+08
   2.60000000E-03   9.61557385E+08   1.14979019E+09   1.14979019E+09   6.64006597E+08   8.31592017E+08   8.31592017E+08
   2.80000000E-03   1.09036141E+09   1.31364595E+09   1.31364595E+09   7.63512392E+08   9.41738722E+08   9.41738722E+08
   3.00000000E-03   1.22148906E+09   1.48092504E+09   1.48092504E+09   8.66684340E+08   1.05409082E+09   1.05409082E+09
   3.20000000E-03   1.35398364E+09   1.65016439E+09   1.65016439E+09   9.72788345E+08   1.16789689E+09   1.16789689E+09
   3.40000000E-03   1.48695905E+09   1.81999676E+09   1.81999676E+09   1.08111432E+09   1.28245743E+09   1.28245743E+09
   3.60000000E-03   1.61960040E+09   1.98915808E+09   1.98915808E+09   1.19098158E+09   1.39712510E+09   1.39712510E+09
   3.80000000E-03   1.75116352E+09   2.15649160E+09   2.15649160E+09   1.30174288E+09   1.51130425E+09   1.51130425E+09
   4.00000000E-03   1.88097352E+09   2.32094950E+09   2.32094950E+09   1.41278736E+09   1.62444990E+09   1.62444990E+09
   4.20000000E-03   2.00842281E+09   2.48159250E+09   2.48159250E+09   1.52354256E+09   1.73606639E+09   1.73606639E+09
   4.40000000E-03   2.13296858E+09   2.63758784E+09   2.63758784E+09   1.63347566E+09   1.84570569E+09   1.84570569E+09
   4.60000000E-03   2.25412999E+09   2.78820608E+09   2.78820608E+09   1.74209411E+09   1.95296550E+09   1.95296550E+09
   4.80000000E-03   2.37148508E+09   2.93281702E+09   2.93281702E+09   1.84894567E+09   2.05748721E+09   2.05748721E+09
   5.00000000E-03   2.48466755E+09   3.07088485E+09   3.07088485E+09   1.95361811E+09   2.15895373E+09   2.15895373E+09
   5.20000000E-03   2.59336351E+09   3.20196291E+09   3.20196291E+09   2.05573849E+09   2.25708734E+09   2.25708734E+09
   5.40000000E-03   2.69730809E+09   3.32568808E+09   3.32568808E+09   2.15497214E+09   2.35164739E+09   2.35164739E+09
   5.60000000E-03   2.79628221E+09   3.44177506E+09   3.44177506E+09   2.25102153E+09   2.44242809E+09   2.44242809E+09
   5.80000000E-03   2.89010925E+09   3.55001050E+09   3.55001050E+09   2.34362478E+09   2.52925635E+09   2.52925635E+09
   6.00000000E-03   2.97865193E+09   3.65024724E+09   3.65024724E+09   2.43255420E+09   2.61198951E+09   2.61198951E+09
   6.20000000E-03   3.06180920E+09   3.74239857E+09   3.74239857E+09   2.51761467E+09   2.69051331E+09   2.69051331E+09
   6.40000000E-03   3.13951324E+09   3.82643271E+09   3.82643271E+09   2.59864192E+09   2.76473976E+09   2.76473976E+09
   6.60000000E-03   3.21172666E+09   3.90236740E+09   3.90236740E+09   2.67550079E+09   2.83460520E+09   2.83460520E+09
   6.80000000E-03   3.27843971E+09   3.97026477E+09   3.97026477E+09   2.74808354E+09   2.90006834E+09   2.90006834E+09
   7.00000000E-03   3.33966773E+09   4.03022645E+09   4.03022645E+09   2.81630803E+09   2.96110848E+09   2.96110848E+09
   7.20000000E-03   3.39544867E+09   4.08238890E+09   4.08238890E+09   2.88011599E+09   3.01772367E+09   3.01772367E+09
   7.40000000E-03   3.44584080E+09   4.12691910E+09   4.12691910E+09   2.93947136E+09   3.06992915E+09   3.06992915E+09
   7.60000000E-03   3.49092046E+09   4.16401040E+09   4.16401040E+09   2.99435853E+09   3.11775564E+09   3.11775564E+09
   7.80000000E-03   3.53078007E+09   4.19387872E+09   4.19387872E+09   3.04478079E+09   3.16124796E+09   3.16124796E+09
   8.00000000E-03   3.56552619E+09   4.21675905E+09   4.21675905E+09   3.09075869E+09   3.20046351E+09   3.20046351E+09
   8.20000000E-03   3.59527773E+09   4.23290213E+09   4.23290213E+09   3.13232855E+09   3.23547098E+09   3.23547098E+09
   8.40000000E-03   3.62016425E+09   4.24257146E+09   4.24257146E+09   3.16954097E+09   3.26634912E+09   3.26634912E+09
   8.60000000E-03   3.64032446E+09   4.24604057E+09   4.24604057E+09   3.20245948E+09   3.29318548E+09   3.29318548E+09
   8.80000000E-03   3.65590477E+09   4.24359045E+09   4.24359045E+09   3.23115916E+09   3.31607538E+09   3.31607538E+09
   9.00000000E-03   3.66705794E+09   4.23550734E+09   4.23550734E+09   3.25572540E+09   3.33512086E+09   3.33512086E+09
   9.20000000E-03   3.67394190E+09   4.22208061E+09   4.22208061E+09   3.27625271E+09   3.35042971E+09   3.35042971E+09
   9.40000000E-03   3.67671859E+09   4.20360094E+09   4.20360094E+09   3.29284357E+09   3.36211458E+09   3.36211458E+09
   9.60000000E-03   3.67555298E+09   4.18035866E+09   4.18035866E+09   3.30560739E+09   3.37029215E+09   3.37029215E+09
   9.80000000E-03   3.67061210E+09   4.15264227E+09   4.15264227E+09   3.31465949E+09   3.37508239E+09   3.37508239E+09
   1.00000000E-02   3.66206419E+09   4.12073714E+09   4.12073714E+09   3.32012020E+09   3.37660781E+09   3.37660781E+09
   1.02000000E-02   3.65007795E+09   4.08492438E+09   4.08492438E+09   3.32211396E+09   3.37499286E+09   3.37499286E+09
   1.04000000E-02   3.63482182E+09   4.04547984E+09   4.04547984E+09   3.32076854E+09   3.37036330E+09   3.37036330E+09
   1.06000000E-02   3.61646337E+09   4.00267324E+09   4.00267324E+09   3.31621427E+09   3.36284564E+09   3.36284564E+09
   1.08000000E-02   3.59516872E+09   3.95676747E+09   3.95676747E+09   3.30858336E+09   3.35256670E+09   3.35256670E+09
   1.10000000E-02   3.57110205E+09   3.90801795E+09   3.90801795E+09   3.29800925E+09   3.33965309E+09   3.33965309E+09
   1.12000000E-02   3.54442515E+09   3.85667214E+09   3.85667214E+09   3.28462605E+09   3.32423085E+09   3.32423085E+09
   1.14000000E-02   3.51529704E+09   3.80296912E+09   3.80296912E+09   3.26856796E+09   3.30642503E+09   3.30642503E+09
   1.16000000E-02   3.48387361E+09   3.74713929E+09   3.74713929E+09   3.24996884E+09   3.28635941E+09   3.28635941E+09
   1.18000000E-02   3.45030734E+09   3.68940409E+09   3.68940409E+09   3.22896173E+09   3.26415614E+09   3.26415614E+09
   1.20000000E-02   3.41474702E+09   3.62997585E+09   3.62997585E+09   3.20567843E+09   3.23993555E+09   3.23993555E+09
   1.22000000E-02   3.37733756E+09   3.56905768E+09   3.56905768E+09   3.18024921E+09   3.21381582E+09   3.21381582E+09
   1.24000000E-02   3.33821980E+09   3.50684345E+09   3.50684345E+09   3.15280240E+09   3.18591286E+09   3.18591286E+09
   1.26000000E-02   3.29753037E+09   3.44351775E+09   3.44351775E+09   3.12346418E+09   3.15634007E+09   3.15634007E+09
   1.28000000E-02   3.25540154E+09   3.37925596E+09   3.37925596E+09   3.09235826E+09   3.12520822E+09   3.12520822E+09
   1.30000000E-02   3.21196117E+09   3.31422432E+09   3.31422432E+09   3.05960572E+09   3.09262530E+09   3.09262530E+09
   1.32000000E-02   3.16733262E+09   3.24858011E+09   3.24858011E+09   3.02532478E+09   3.05869641E+09   3.05869641E+09
   1.34000000E-02   3.12163472E+09   3.18247173E+09   3.18247173E+09   2.98963063E+09   3.02352365E+09   3.02352365E+09
   1.36000000E-02   3.07498174E+09   3.11603893E+09   3.11603893E+09   2.95263531E+09   2.98720608E+09   2.98720608E+09
   1.38000000E-02   3.02748338E+09   3.04941301E+09   3.04941301E+09   2.91444759E+09   2.94983964E+09   2.94983964E+09
   1.40000000E-02   2.97924480E+09   2.98271701E+09   2.98271701E+09   2.87517287E+09   2.91151712E+09   2.91151712E+09
   1.42000000E-02   2.93036665E+09   2.91606599E+09   2.91606599E+09   2.83491309E+09   2.87232811E+09   2.87232811E+09
   1.44000000E-02   2.88094508E+09   2.84956723E+09   2.84956723E+09   2.79376670E+09   2.83235901E+09   2.83235901E+09
   1.46000000E-02   2.83107183E+09   2.78332056E+09   2.78332056E+09   2.75182863E+09   2.79169299E+09   2.79169299E+09
   1.48000000E-02   2.78083428E+09   2.71741854E+09   2.71741854E+09   2.70919019E+09   2.75041005E+09   2.75041005E+09
   1.50000000E-02   2.73031552E+09   2.65194682E+09   2.65194682E+09   2.66593918E+09   2.70858698E+09   2.70858698E+09
   1.52000000E-02   2.67959444E+09   2.58698433E+09   2.58698433E+09   2.62215979E+09   2.66629741E+09   2.66629741E+09
   1.54000000E-02   2.62874580E+09   2.52260363E+09   2.52260363E+09   2.57793267E+09   2.62361186E+09   2.62361186E+09
   1.56000000E-02   2.57784034E+09   2.45887116E+09   2.45887116E+09   2.53333493E+09   2.58059772E+09   2.58059772E+09
   1.58000000E-02   2.52694491E+09   2.39584750E+09   2.39584750E+09   2.48844018E+09   2.53731937E+09   2.53731937E+09
   1.60000000E-02   2.47612250E+09   2.33358767E+09   2.33358767E+09   2.44331860E+09   2.49383818E+09   2.49383818E+09
   1.62000000E-02   2.42543241E+09   2.27214139E+09   2.27214139E+09   2.39803696E+09   2.45021258E+09   2.45021258E+09
   1.64000000E-02   2.37493033E+09   2.21155332E+09   2.21155332E+09   2.35265868E+09   2.40649810E+09   2.40649810E+09
   1.66000000E-02   2.32466847E+09   2.15186339E+09   2.15186339E+09   2.30724391E+09   2.36274749E+09   2.36274749E+09
   1.68000000E-02   2.27469567E+09   2.09310697E+09   2.09310697E+09   2.26184958E+09   2.31901069E+09   2.31901069E+09
   1.70000000E-02   2.22505748E+09   2.03531518E+09   2.03531518E+09   2.21652950E+09   2.27533501E+09   2.27533501E+09
   1.72000000E-02   2.17579634E+09   1.97851513E+09   1.97851513E+09   2.17133441E+09   2.23176511E+09   2.23176511E+09
   1.74000000E-02   2.12695164E+09   1.92273010E+09   1.92273010E+09   2.12631207E+09   2.18834312E+09   2.18834312E+09
   1.76000000E-02   2.07855985E+09   1.86797982E+09   1.86797982E+09   2.08150735E+09   2.14510870E+09   2.14510870E+09
   1.78000000E-02   2.03065465E+09   1.81428069E+09   1.81428069E+09   2.03696230E+09   2.10209911E+09   2.10209911E+09
   1.80000000E-02   1.98326701E+09   1.76164595E+09   1.76164595E+09   1.99271626E+09   2.05934930E+09   2.05934930E+09
   1.82000000E-02   1.93642534E+09   1.71008593E+09   1.71008593E+09   1.94880592E+09   2.01689196E+09   2.01689196E+09
   1.84000000E-02   1.89015557E+09   1.65960822E+09   1.65960822E+09   1.90526542E+09   1.97475762E+09   1.97475762E+09
   1.86000000E-02   1.84448128E+09   1.61021785E+09   1.61021785E+09   1.86212645E+09   1.93297474E+09   1.93297474E+09
   1.88000000E-02   1.79942378E+09   1.56191752E+09   1.56191752E+09   1.81941834E+09   1.89156972E+09   1.89156972E+09
   1.90000000E-02   1.75500225E+09   1.51470769E+09   1.51470769E+09   1.77716810E+09   1.85056704E+09   1.85056704E+09
   1.92000000E-02   1.71123378E+09   1.46858682E+09   1.46858682E+09   1.73540059E+09   1.80998932E+09   1.80998932E+09
   1.94000000E-02   1.66813356E+09   1.42355149E+09   1.42355149E+09   1.69413855E+09   1.76985737E+09   1.76985737E+09
   1.96000000E-02   1.62571489E+09   1.37959655E+09   1.37959655E+09   1.65340268E+09   1.73019028E+09   1.73019028E+09
   1.98000000E-02   1.58398932E+09   1.33671527E+09   1.33671527E+09   1.61321177E+09   1.69100549E+09   1.69100549E+09
   2.00000000E-02   1.54296673E+09   1.29489947E+09   1.29489947E+09   1.57358277E+09   1.65231886E+09   1.65231886E+09
   2.02000000E-02   1.50265544E+09   1.25413966E+09   1.25413966E+09   1.53453084E+09   1.61414472E+09   1.61414472E+09
   2.04000000E-02   1.46306223E+09   1.21442513E+09   1.21442513E+09   1.49606947E+09   1.57649598E+09   1.57649598E+09
   2.06000000E-02   1.42419252E+09   1.17574410E+09   1.17574410E+09   1.45821054E+09   1.53938415E+09   1.53938415E+09
   2.08000000E-02   1.38605037E+09   1.13808379E+09   1.13808379E+09   1.42096440E+09   1.50281942E+09   1.50281942E+09
   2.10000000E-02   1.34863859E+09   1.10143056E+09   1.10143056E+09   1.38433996E+09   1.46681073E+09   1.46681073E+09
   2.12000000E-02   1.31195882E+09   1.06576999E+09   1.06576999E+09   1.34834474E+09   1.43136584E+09   1.43136584E+09
   2.14000000E-02   1.27601159E+09   1.03108693E+09   1.03108693E+09   1.31298496E+09   1.39649136E+09   1.39649136E+09
   2.16000000E-02   1.24079640E+09   9.97365667E+08   9.97365667E+08   1.27826561E+09   1.36219283E+09   1.36219283E+09
   2.18000000E-02   1.20631176E+09   9.64589929E+08   9.64589929E+08   1.24419051E+09   1.32847476E+09   1.32847476E+09
   2.20000000E-02   1.17255531E+09   9.32742995E+08   9.32742995E+08   1.21076237E+09   1.29534069E+09   1.29534069E+09
   2.22000000E-02   1.13952381E+09   9.01807753E+08   9.01807753E+08   1.17798287E+09   1.26279327E+09   1.26279327E+09
   2.24000000E-02   1.10721326E+09   8.71766768E+08   8.71766768E+08   1.14585271E+09   1.23083425E+09   1.23083425E+09
   2.26000000E-02   1.07561891E+09   8.42602341E+08   8.42602341E+08   1.11437168E+09   1.19946460E+09   1.19946460E+09
   2.28000000E-02   1.04473537E+09   8.14296563E+08   8.14296563E+08   1.08353870E+09   1.16868450E+09   1.16868450E+09
   2.30000000E-02   1.01455659E+09   7.86831366E+08   7.86831366E+08   1.05335190E+09   1.13849342E+09   1.13849342E+09
   2.32000000E-02   9.85075978E+08   7.60188577E+08   7.60188577E+08   1.02380863E+09   1.10889014E+09   1.10889014E+09
   2.34000000E-02   9.56286387E+08   7.34349954E+08   7.34349954E+08   9.94905562E+08   1.07987281E+09   1.07987281E+09
   2.36000000E-02   9.28180209E+08   7.09297230E+08   7.09297230E+08   9.66638720E+08   1.05143899E+09   1.05143899E+09
   2.38000000E-02   9.00749388E+08   6.85012155E+08   6.85012155E+08   9.39003510E+08   1.02358568E+09   1.02358568E+09
   2.40000000E-02   8.73985475E+08   6.61476521E+08   6.61476521E+08   9.11994783E+08   9.96309356E+08   9.96309356E+08
   2.42000000E-02   8.47879656E+08   6.38672204E+08   6.38672204E+08   8.85606872E+08   9.69606018E+08   9.69606018E+08
   2.44000000E-02   8.22422798E+08   6.16581185E+08   6.16581185E+08   8.59833635E+08   9.43471219E+08   9.43471219E+08
   2.46000000E-02   7.97605477E+08   5.95185580E+08   5.95185580E+08   8.34668494E+08   9.17900095E+08   9.17900095E+08
   2.48000000E-02   7.73418013E+08   5.74467663E+08   5.74467663E+08   8.10104473E+08   8.92887401E+08   8.92887401E+08
   2.50000000E-02   7.49850503E+08   5.54409887E+08   5.54409887E+08   7.86134230E+08   8.68427536E+08   8.68427536E+08
   2.52000000E-02   7.26892847E+08   5.34994906E+08   5.34994906E+08   7.62750096E+08   8.44514578E+08   8.44514578E+08
   2.54000000E-02   7.04534778E+08   5.16205588E+08   5.16205588E+08   7.39944105E+08   8.21142309E+08   8.21142309E+08
   2.56000000E-02   6.82765886E+08   4.98025034E+08   4.98025034E+08   7.17708025E+08   7.98304239E+08   7.98304239E+08
   2.58000000E-02   6.61575647E+08   4.80436593E+08   4.80436593E+08   6.96033386E+08   7.75993636E+08   7.75993636E+08
   2.60000000E-02   6.40953441E+08   4.63423869E+08   4.63423869E+08   6.74911509E+08   7.54203544E+08   7.54203544E+08
   2.62000000E-02   6.20888574E+08   4.46970736E+08   4.46970736E+08   6.54333535E+08   7.32926811E+08   7.32926811E+08
   2.64000000E-02   6.01370303E+08   4.31061345E+08   4.31061345E+08   6.34290441E+08   7.12156107E+08   7.12156107E+08
   2.66000000E-02   5.82387852E+08   4.15680135E+08   4.15680135E+08   6.14773075E+08   6.91883947E+08   6.91883947E+08
   2.68000000E-02   5.63930428E+08   4.00811835E+08   4.00811835E+08   5.95772167E+08   6.72102707E+08   6.72102707E+08
   2.70000000E-02   5.45987241E+08   3.86441474E+08   3.86441474E+08   5.77278360E+08   6.52804648E+08   6.52804648E+08
   2.72000000E-02   5.28547518E+08   3.72554380E+08   3.72554380E+08   5.59282220E+08   6.33981925E+08   6.33981925E+08
   2.74000000E-02   5.11600519E+08   3.59136189E+08   3.59136189E+08   5.41774261E+08   6.15626613E+08   6.15626613E+08
   2.76000000E-02   4.95135547E+08   3.46172846E+08   3.46172846E+08   5.24744961E+08   5.97730714E+08   5.97730714E+08
   2.78000000E-02   4.79141963E+08   3.33650604E+08   3.33650604E+08   5.08184776E+08   5.80286179E+08   5.80286179E+08
   2.80000000E-02   4.63609197E+08   3.21556027E+08   3.21556027E+08   4.92084157E+08   5.63284914E+08   5.63284914E+08
   2.82000000E-02   4.48526760E+08   3.09875991E+08   3.09875991E+08   4.76433562E+08   5.46718800E+08   5.46718800E+08
   2.84000000E-02   4.33884251E+08   2.98597683E+08   2.98597683E+08   4.61223474E+08   5.30579702E+08   5.30579702E+08
   2.86000000E-02   4.19671368E+08   2.87708596E+08   2.87708596E+08   4.46444406E+08   5.14859481E+08   5.14859481E+08
   2.88000000E-02   4.05877915E+08   2.77196535E+08   2.77196535E+08   4.32086921E+08   4.99550001E+08   4.99550001E+08
   2.90000000E-02   3.92493809E+08   2.67049608E+08   2.67049608E+08   4.18141634E+08   4.84643147E+08   4.84643147E+08
   2.92000000E-02   3.79509091E+08   2.57256228E+08   2.57256228E+08   4.04599227E+08   4.70130827E+08   4.70130827E+08
   2.94000000E-02   3.66913925E+08   2.47805108E+08   2.47805108E+08   3.91450458E+08   4.56004984E+08   4.56004984E+08
   2.96000000E-02   3.54698611E+08   2.38685258E+08   2.38685258E+08   3.78686166E+08   4.42257604E+08   4.42257604E+08
   2.98000000E-02   3.42853584E+08   2.29885980E+08   2.29885980E+08   3.66297281E+08   4.28880722E+08   4.28880722E+08
   3.00000000E-02   3.31369421E+08   2.21396868E+08   2.21396868E+08   3.54274831E+08   4.15866432E+08   4.15866432E+08
   3.02000000E-02   3.20236845E+08   2.13207799E+08   2.13207799E+08   3.42609949E+08   4.03206889E+08   4.03206889E+08
   3.04000000E-02   3.09446729E+08   2.05308934E+08   2.05308934E+08   3.31293874E+08   3.90894318E+08   3.90894318E+08
   3.06000000E-02   2.98990096E+08   1.97690707E+08   1.97690707E+08   3.20317964E+08   3.78921022E+08   3.78921022E+08
   3.08000000E-02   2.88858125E+08   1.90343827E+08   1.90343827E+08   3.09673692E+08   3.67279379E+08   3.67279379E+08
   3.10000000E-02   2.79042149E+08   1.83259266E+08   1.83259266E+08   2.99352659E+08   3.55961855E+08   3.55961855E+08
   3.12000000E-02   2.69533664E+08   1.76428262E+08   1.76428262E+08   2.89346589E+08   3.44961004E+08   3.44961004E+08
   3.14000000E-02   2.60324319E+08   1.69842307E+08   1.69842307E+08   2.79647338E+08   3.34269471E+08   3.34269471E+08
   3.16000000E-02   2.51405930E+08   1.63493146E+08   1.63493146E+08   2.70246897E+08   3.23879998E+08   3.23879998E+08
   3.18000000E-02   2.42770468E+08   1.57372768E+08   1.57372768E+08   2.61137389E+08   3.13785426E+08   3.13785426E+08
   3.20000000E-02   2.34410071E+08   1.51473406E+08   1.51473406E+08   2.52311078E+08   3.03978698E+08   3.03978698E+08
   3.22000000E-02   2.26317036E+08   1.45787525E+08   1.45787525E+08   2.43760365E+08   2.94452860E+08   2.94452860E+08
   3.24000000E-02   2.18483820E+08   1.40307824E+08   1.40307824E+08   2.35477793E+08   2.85201064E+08   2.85201064E+08
   3.26000000E-02   2.10903046E+08   1.35027225E+08   1.35027225E+08   2.27456046E+08   2.76216572E+08   2.76216572E+08
   3.28000000E-02   2.03567492E+08   1.29938869E+08   1.29938869E+08   2.19687951E+08   2.67492753E+08   2.67492753E+08
