# TBinMid=0.065 ssec TBinWidth=0.01 ss EBinWidth=0.2MeV Fluence at Earth for this timebin in neutrinos per cm^2
# E(GeV)	NuE	NuMu	NuTau	aNuE	aNuMu	aNuTau
   1.38589050E-13   8.90254435E-24   4.65346025E-24   4.65346025E-24   7.93250201E-24   2.08901031E-23   2.08901031E-23
   2.00000000E-04   1.82738540E+05   2.19315426E+05   2.19315426E+05   6.21851298E+04   1.50206974E+05   1.50206974E+05
   4.00000000E-04   1.50391651E+06   2.30377796E+06   2.30377796E+06   5.50742529E+05   1.19374471E+06   1.19374471E+06
   6.00000000E-04   5.04705283E+06   8.95349349E+06   8.95349349E+06   2.02407717E+06   3.94590540E+06   3.94590540E+06
   8.00000000E-04   1.17214377E+07   2.30112064E+07   2.30112064E+07   5.15455900E+06   9.10746972E+06   9.10746972E+06
   1.00000000E-03   2.22404178E+07   4.70481275E+07   4.70481275E+07   1.06844227E+07   1.72630087E+07   1.72630087E+07
   1.20000000E-03   3.71258906E+07   8.31569536E+07   8.31569536E+07   1.93792275E+07   2.88840166E+07   2.88840166E+07
   1.40000000E-03   5.67225793E+07   1.32861229E+08   1.32861229E+08   3.19855490E+07   4.43337603E+07   4.43337603E+07
   1.60000000E-03   8.12164863E+07   1.97096239E+08   1.97096239E+08   4.91955971E+07   6.38732226E+07   6.38732226E+07
   1.80000000E-03   1.10654858E+08   2.76234326E+08   2.76234326E+08   7.16195680E+07   8.76678754E+07   8.76678754E+07
   2.00000000E-03   1.44966213E+08   3.70136924E+08   3.70136924E+08   9.97655850E+07   1.15795093E+08   1.15795093E+08
   2.20000000E-03   1.83979617E+08   4.78221317E+08   4.78221317E+08   1.34026599E+08   1.48252022E+08   1.48252022E+08
   2.40000000E-03   2.27442719E+08   5.99533932E+08   5.99533932E+08   1.74673391E+08   1.84963741E+08   1.84963741E+08
   2.60000000E-03   2.75038306E+08   7.32824617E+08   7.32824617E+08   2.21852750E+08   2.25791536E+08   2.25791536E+08
   2.80000000E-03   3.26399257E+08   8.76618198E+08   8.76618198E+08   2.75589877E+08   2.70541166E+08   2.70541166E+08
   3.00000000E-03   3.81121859E+08   1.02928095E+09   1.02928095E+09   3.35794154E+08   3.18970962E+08   3.18970962E+08
   3.20000000E-03   4.38777541E+08   1.18908056E+09   1.18908056E+09   4.02267469E+08   3.70799677E+08   3.70799677E+08
   3.40000000E-03   4.98923062E+08   1.35423894E+09   1.35423894E+09   4.74714384E+08   4.25713984E+08   4.25713984E+08
   3.60000000E-03   5.61109281E+08   1.52297755E+09   1.52297755E+09   5.52753543E+08   4.83375545E+08   4.83375545E+08
   3.80000000E-03   6.24888595E+08   1.69355549E+09   1.69355549E+09   6.35929784E+08   5.43427618E+08   5.43427618E+08
   4.00000000E-03   6.89821162E+08   1.86430058E+09   1.86430058E+09   7.23726537E+08   6.05501151E+08   6.05501151E+08
   4.20000000E-03   7.55480030E+08   2.03363405E+09   2.03363405E+09   8.15578142E+08   6.69220336E+08   6.69220336E+08
   4.40000000E-03   8.21455280E+08   2.20008930E+09   2.20008930E+09   9.10881804E+08   7.34207632E+08   7.34207632E+08
   4.60000000E-03   8.87357294E+08   2.36232553E+09   2.36232553E+09   1.00900898E+09   8.00088237E+08   8.00088237E+08
   4.80000000E-03   9.52819250E+08   2.51913668E+09   2.51913668E+09   1.10931602E+09   8.66494029E+08   8.66494029E+08
   5.00000000E-03   1.01749894E+09   2.66945644E+09   2.66945644E+09   1.21115396E+09   9.33066988E+08   9.33066988E+08
   5.20000000E-03   1.08108001E+09   2.81235993E+09   2.81235993E+09   1.31387738E+09   9.99462123E+08   9.99462123E+08
   5.40000000E-03   1.14327267E+09   2.94706250E+09   2.94706250E+09   1.41685232E+09   1.06534993E+09   1.06534993E+09
   5.60000000E-03   1.20381402E+09   3.07291628E+09   3.07291628E+09   1.51946317E+09   1.13041839E+09   1.13041839E+09
   5.80000000E-03   1.26246795E+09   3.18940486E+09   3.18940486E+09   1.62111861E+09   1.19437460E+09   1.19437460E+09
   6.00000000E-03   1.31902478E+09   3.29613658E+09   3.29613658E+09   1.72125664E+09   1.25694597E+09   1.25694597E+09
   6.20000000E-03   1.37330066E+09   3.39283670E+09   3.39283670E+09   1.81934868E+09   1.31788112E+09   1.31788112E+09
   6.40000000E-03   1.42513673E+09   3.47933887E+09   3.47933887E+09   1.91490278E+09   1.37695043E+09   1.37695043E+09
   6.60000000E-03   1.47439811E+09   3.55557612E+09   3.55557612E+09   2.00746612E+09   1.43394634E+09   1.43394634E+09
   6.80000000E-03   1.52097285E+09   3.62157156E+09   3.62157156E+09   2.09662673E+09   1.48868338E+09   1.48868338E+09
   7.00000000E-03   1.56477070E+09   3.67742909E+09   3.67742909E+09   2.18201455E+09   1.54099800E+09   1.54099800E+09
   7.20000000E-03   1.60572183E+09   3.72332415E+09   3.72332415E+09   2.26330192E+09   1.59074815E+09   1.59074815E+09
   7.40000000E-03   1.64377555E+09   3.75949478E+09   3.75949478E+09   2.34020354E+09   1.63781283E+09   1.63781283E+09
   7.60000000E-03   1.67889899E+09   3.78623295E+09   3.78623295E+09   2.41247592E+09   1.68209134E+09   1.68209134E+09
   7.80000000E-03   1.71107575E+09   3.80387633E+09   3.80387633E+09   2.47991650E+09   1.72350251E+09   1.72350251E+09
   8.00000000E-03   1.74030462E+09   3.81280055E+09   3.81280055E+09   2.54236239E+09   1.76198387E+09   1.76198387E+09
   8.20000000E-03   1.76659823E+09   3.81341196E+09   3.81341196E+09   2.59968883E+09   1.79749063E+09   1.79749063E+09
   8.40000000E-03   1.78998186E+09   3.80614090E+09   3.80614090E+09   2.65180740E+09   1.82999469E+09   1.82999469E+09
   8.60000000E-03   1.81049216E+09   3.79143558E+09   3.79143558E+09   2.69866410E+09   1.85948364E+09   1.85948364E+09
   8.80000000E-03   1.82817600E+09   3.76975645E+09   3.76975645E+09   2.74023722E+09   1.88595962E+09   1.88595962E+09
   9.00000000E-03   1.84308935E+09   3.74157118E+09   3.74157118E+09   2.77653518E+09   1.90943827E+09   1.90943827E+09
   9.20000000E-03   1.85529623E+09   3.70735010E+09   3.70735010E+09   2.80759422E+09   1.92994766E+09   1.92994766E+09
   9.40000000E-03   1.86486763E+09   3.66756219E+09   3.66756219E+09   2.83347616E+09   1.94752718E+09   1.94752718E+09
   9.60000000E-03   1.87188065E+09   3.62267162E+09   3.62267162E+09   2.85426603E+09   1.96222650E+09   1.96222650E+09
   9.80000000E-03   1.87641751E+09   3.57313461E+09   3.57313461E+09   2.87006984E+09   1.97410455E+09   1.97410455E+09
   1.00000000E-02   1.87856480E+09   3.51939687E+09   3.51939687E+09   2.88101230E+09   1.98322850E+09   1.98322850E+09
   1.02000000E-02   1.87841263E+09   3.46189136E+09   3.46189136E+09   2.88723467E+09   1.98967277E+09   1.98967277E+09
   1.04000000E-02   1.87605394E+09   3.40103643E+09   3.40103643E+09   2.88889259E+09   1.99351817E+09   1.99351817E+09
   1.06000000E-02   1.87158385E+09   3.33723438E+09   3.33723438E+09   2.88615406E+09   1.99485095E+09   1.99485095E+09
   1.08000000E-02   1.86509899E+09   3.27087022E+09   3.27087022E+09   2.87919753E+09   1.99376197E+09   1.99376197E+09
   1.10000000E-02   1.85669700E+09   3.20231079E+09   3.20231079E+09   2.86821001E+09   1.99034597E+09   1.99034597E+09
   1.12000000E-02   1.84647597E+09   3.13190415E+09   3.13190415E+09   2.85338538E+09   1.98470072E+09   1.98470072E+09
   1.14000000E-02   1.83453402E+09   3.05997910E+09   3.05997910E+09   2.83492270E+09   1.97692641E+09   1.97692641E+09
   1.16000000E-02   1.82096882E+09   2.98684503E+09   2.98684503E+09   2.81302476E+09   1.96712497E+09   1.96712497E+09
   1.18000000E-02   1.80587727E+09   2.91279186E+09   2.91279186E+09   2.78789665E+09   1.95539946E+09   1.95539946E+09
   1.20000000E-02   1.78935513E+09   2.83809018E+09   2.83809018E+09   2.75974445E+09   1.94185352E+09   1.94185352E+09
   1.22000000E-02   1.77149671E+09   2.76299148E+09   2.76299148E+09   2.72877408E+09   1.92659088E+09   1.92659088E+09
   1.24000000E-02   1.75239465E+09   2.68772856E+09   2.68772856E+09   2.69519020E+09   1.90971488E+09   1.90971488E+09
   1.26000000E-02   1.73213965E+09   2.61251595E+09   2.61251595E+09   2.65919526E+09   1.89132803E+09   1.89132803E+09
   1.28000000E-02   1.71082028E+09   2.53755052E+09   2.53755052E+09   2.62098863E+09   1.87153168E+09   1.87153168E+09
   1.30000000E-02   1.68852279E+09   2.46301205E+09   2.46301205E+09   2.58076584E+09   1.85042565E+09   1.85042565E+09
   1.32000000E-02   1.66533102E+09   2.38906390E+09   2.38906390E+09   2.53871789E+09   1.82810791E+09   1.82810791E+09
   1.34000000E-02   1.64132620E+09   2.31585374E+09   2.31585374E+09   2.49503065E+09   1.80467437E+09   1.80467437E+09
   1.36000000E-02   1.61658691E+09   2.24351426E+09   2.24351426E+09   2.44988441E+09   1.78021860E+09   1.78021860E+09
   1.38000000E-02   1.59118901E+09   2.17216394E+09   2.17216394E+09   2.40345340E+09   1.75483163E+09   1.75483163E+09
   1.40000000E-02   1.56520551E+09   2.10190779E+09   2.10190779E+09   2.35590546E+09   1.72860182E+09   1.72860182E+09
   1.42000000E-02   1.53870661E+09   2.03283818E+09   2.03283818E+09   2.30740178E+09   1.70161470E+09   1.70161470E+09
   1.44000000E-02   1.51175963E+09   1.96503549E+09   1.96503549E+09   2.25809662E+09   1.67395282E+09   1.67395282E+09
   1.46000000E-02   1.48442899E+09   1.89856900E+09   1.89856900E+09   2.20813722E+09   1.64569572E+09   1.64569572E+09
   1.48000000E-02   1.45677625E+09   1.83349753E+09   1.83349753E+09   2.15766364E+09   1.61691980E+09   1.61691980E+09
   1.50000000E-02   1.42886009E+09   1.76987020E+09   1.76987020E+09   2.10680872E+09   1.58769832E+09   1.58769832E+09
   1.52000000E-02   1.40073635E+09   1.70772715E+09   1.70772715E+09   2.05569807E+09   1.55810135E+09   1.55810135E+09
   1.54000000E-02   1.37245807E+09   1.64710019E+09   1.64710019E+09   2.00445006E+09   1.52819572E+09   1.52819572E+09
   1.56000000E-02   1.34407548E+09   1.58801350E+09   1.58801350E+09   1.95317594E+09   1.49804510E+09   1.49804510E+09
   1.58000000E-02   1.31563612E+09   1.53048418E+09   1.53048418E+09   1.90197988E+09   1.46770994E+09   1.46770994E+09
   1.60000000E-02   1.28718484E+09   1.47452296E+09   1.47452296E+09   1.85095911E+09   1.43724756E+09   1.43724756E+09
   1.62000000E-02   1.25876389E+09   1.42013466E+09   1.42013466E+09   1.80020404E+09   1.40671213E+09   1.40671213E+09
   1.64000000E-02   1.23041295E+09   1.36731881E+09   1.36731881E+09   1.74979849E+09   1.37615475E+09   1.37615475E+09
   1.66000000E-02   1.20216924E+09   1.31607014E+09   1.31607014E+09   1.69981978E+09   1.34562354E+09   1.34562354E+09
   1.68000000E-02   1.17406757E+09   1.26637905E+09   1.26637905E+09   1.65033899E+09   1.31516363E+09   1.31516363E+09
   1.70000000E-02   1.14614038E+09   1.21823207E+09   1.21823207E+09   1.60142118E+09   1.28481728E+09   1.28481728E+09
   1.72000000E-02   1.11841788E+09   1.17161231E+09   1.17161231E+09   1.55312554E+09   1.25462397E+09   1.25462397E+09
   1.74000000E-02   1.09092809E+09   1.12649984E+09   1.12649984E+09   1.50550571E+09   1.22462043E+09   1.22462043E+09
   1.76000000E-02   1.06369690E+09   1.08287203E+09   1.08287203E+09   1.45860993E+09   1.19484078E+09   1.19484078E+09
   1.78000000E-02   1.03674820E+09   1.04070396E+09   1.04070396E+09   1.41248133E+09   1.16531658E+09   1.16531658E+09
   1.80000000E-02   1.01010390E+09   9.99968695E+08   9.99968695E+08   1.36715817E+09   1.13607693E+09   1.13607693E+09
   1.82000000E-02   9.83784066E+08   9.60637580E+08   9.60637580E+08   1.32267404E+09   1.10714857E+09   1.10714857E+09
   1.84000000E-02   9.57806949E+08   9.22680536E+08   9.22680536E+08   1.27905814E+09   1.07855598E+09   1.07855598E+09
   1.86000000E-02   9.32189093E+08   8.86066291E+08   8.86066291E+08   1.23633549E+09   1.05032143E+09   1.05032143E+09
   1.88000000E-02   9.06945402E+08   8.50762619E+08   8.50762619E+08   1.19452722E+09   1.02246513E+09   1.02246513E+09
   1.90000000E-02   8.82089217E+08   8.16736543E+08   8.16736543E+08   1.15365071E+09   9.95005303E+08   9.95005303E+08
   1.92000000E-02   8.57632389E+08   7.83954530E+08   7.83954530E+08   1.11371991E+09   9.67958260E+08   9.67958260E+08
   1.94000000E-02   8.33585356E+08   7.52382660E+08   7.52382660E+08   1.07474549E+09   9.41338510E+08   9.41338510E+08
   1.96000000E-02   8.09957212E+08   7.21986788E+08   7.21986788E+08   1.03673511E+09   9.15158845E+08   9.15158845E+08
   1.98000000E-02   7.86755777E+08   6.92732679E+08   6.92732679E+08   9.99693596E+08   8.89430430E+08   8.89430430E+08
   2.00000000E-02   7.63987667E+08   6.64586137E+08   6.64586137E+08   9.63623145E+08   8.64162890E+08   8.64162890E+08
   2.02000000E-02   7.41658360E+08   6.37513116E+08   6.37513116E+08   9.28523539E+08   8.39364393E+08   8.39364393E+08
   2.04000000E-02   7.19772259E+08   6.11479824E+08   6.11479824E+08   8.94392318E+08   8.15041734E+08   8.15041734E+08
   2.06000000E-02   6.98332755E+08   5.86452807E+08   5.86452807E+08   8.61224966E+08   7.91200417E+08   7.91200417E+08
   2.08000000E-02   6.77342292E+08   5.62399029E+08   5.62399029E+08   8.29015081E+08   7.67844730E+08   7.67844730E+08
   2.10000000E-02   6.56802418E+08   5.39285940E+08   5.39285940E+08   7.97754540E+08   7.44977822E+08   7.44977822E+08
   2.12000000E-02   6.36713847E+08   5.17081533E+08   5.17081533E+08   7.67433663E+08   7.22601779E+08   7.22601779E+08
   2.14000000E-02   6.17076514E+08   4.95754396E+08   4.95754396E+08   7.38041353E+08   7.00717688E+08   7.00717688E+08
   2.16000000E-02   5.97889623E+08   4.75273752E+08   4.75273752E+08   7.09565244E+08   6.79325712E+08   6.79325712E+08
   2.18000000E-02   5.79151702E+08   4.55609499E+08   4.55609499E+08   6.81991834E+08   6.58425148E+08   6.58425148E+08
   2.20000000E-02   5.60860647E+08   4.36732232E+08   4.36732232E+08   6.55306614E+08   6.38014497E+08   6.38014497E+08
   2.22000000E-02   5.43013773E+08   4.18613274E+08   4.18613274E+08   6.29494182E+08   6.18091517E+08   6.18091517E+08
   2.24000000E-02   5.25607856E+08   4.01224687E+08   4.01224687E+08   6.04538361E+08   5.98653285E+08   5.98653285E+08
   2.26000000E-02   5.08639174E+08   3.84539289E+08   3.84539289E+08   5.80422302E+08   5.79696249E+08   5.79696249E+08
   2.28000000E-02   4.92103551E+08   3.68530665E+08   3.68530665E+08   5.57128586E+08   5.61216282E+08   5.61216282E+08
   2.30000000E-02   4.75996391E+08   3.53173164E+08   3.53173164E+08   5.34639310E+08   5.43208731E+08   5.43208731E+08
   2.32000000E-02   4.60312722E+08   3.38441911E+08   3.38441911E+08   5.12936180E+08   5.25668461E+08   5.25668461E+08
   2.34000000E-02   4.45047223E+08   3.24312795E+08   3.24312795E+08   4.92000587E+08   5.08589906E+08   5.08589906E+08
   2.36000000E-02   4.30194261E+08   3.10762475E+08   3.10762475E+08   4.71813682E+08   4.91967106E+08   4.91967106E+08
   2.38000000E-02   4.15747925E+08   2.97768365E+08   2.97768365E+08   4.52356445E+08   4.75793748E+08   4.75793748E+08
   2.40000000E-02   4.01702050E+08   2.85308630E+08   2.85308630E+08   4.33609749E+08   4.60063206E+08   4.60063206E+08
   2.42000000E-02   3.88050251E+08   2.73362177E+08   2.73362177E+08   4.15554415E+08   4.44768577E+08   4.44768577E+08
   2.44000000E-02   3.74785946E+08   2.61908637E+08   2.61908637E+08   3.98171272E+08   4.29902710E+08   4.29902710E+08
   2.46000000E-02   3.61902384E+08   2.50928357E+08   2.50928357E+08   3.81441199E+08   4.15458242E+08   4.15458242E+08
   2.48000000E-02   3.49392666E+08   2.40402385E+08   2.40402385E+08   3.65345172E+08   4.01427629E+08   4.01427629E+08
   2.50000000E-02   3.37249768E+08   2.30312453E+08   2.30312453E+08   3.49864306E+08   3.87803168E+08   3.87803168E+08
   2.52000000E-02   3.25466565E+08   2.20640960E+08   2.20640960E+08   3.34979891E+08   3.74577027E+08   3.74577027E+08
   2.54000000E-02   3.14035846E+08   2.11370959E+08   2.11370959E+08   3.20673421E+08   3.61741271E+08   3.61741271E+08
   2.56000000E-02   3.02950339E+08   2.02486136E+08   2.02486136E+08   3.06926630E+08   3.49287882E+08   3.49287882E+08
   2.58000000E-02   2.92202719E+08   1.93970798E+08   1.93970798E+08   2.93721511E+08   3.37208779E+08   3.37208779E+08
   2.60000000E-02   2.81785634E+08   1.85809846E+08   1.85809846E+08   2.81040347E+08   3.25495841E+08   3.25495841E+08
   2.62000000E-02   2.71691713E+08   1.77988767E+08   1.77988767E+08   2.68865723E+08   3.14140924E+08   3.14140924E+08
   2.64000000E-02   2.61913583E+08   1.70493610E+08   1.70493610E+08   2.57180551E+08   3.03135877E+08   3.03135877E+08
   2.66000000E-02   2.52443883E+08   1.63310970E+08   1.63310970E+08   2.45968078E+08   2.92472559E+08   2.92472559E+08
   2.68000000E-02   2.43275272E+08   1.56427969E+08   1.56427969E+08   2.35211906E+08   2.82142852E+08   2.82142852E+08
   2.70000000E-02   2.34400445E+08   1.49832243E+08   1.49832243E+08   2.24895999E+08   2.72138675E+08   2.72138675E+08
   2.72000000E-02   2.25812140E+08   1.43511917E+08   1.43511917E+08   2.15004690E+08   2.62451998E+08   2.62451998E+08
   2.74000000E-02   2.17503149E+08   1.37455593E+08   1.37455593E+08   2.05522694E+08   2.53074849E+08   2.53074849E+08
   2.76000000E-02   2.09466326E+08   1.31652334E+08   1.31652334E+08   1.96435106E+08   2.43999326E+08   2.43999326E+08
   2.78000000E-02   2.01694594E+08   1.26091643E+08   1.26091643E+08   1.87727409E+08   2.35217609E+08   2.35217609E+08
   2.80000000E-02   1.94180955E+08   1.20763450E+08   1.20763450E+08   1.79385478E+08   2.26721963E+08   2.26721963E+08
   2.82000000E-02   1.86918493E+08   1.15658097E+08   1.15658097E+08   1.71395576E+08   2.18504751E+08   2.18504751E+08
   2.84000000E-02   1.79900383E+08   1.10766317E+08   1.10766317E+08   1.63744357E+08   2.10558436E+08   2.10558436E+08
   2.86000000E-02   1.73119895E+08   1.06079228E+08   1.06079228E+08   1.56418866E+08   2.02875590E+08   2.02875590E+08
   2.88000000E-02   1.66570398E+08   1.01588309E+08   1.01588309E+08   1.49406533E+08   1.95448898E+08   1.95448898E+08
   2.90000000E-02   1.60245365E+08   9.72853936E+07   9.72853936E+07   1.42695173E+08   1.88271162E+08   1.88271162E+08
   2.92000000E-02   1.54138376E+08   9.31626505E+07   9.31626505E+07   1.36272981E+08   1.81335307E+08   1.81335307E+08
   2.94000000E-02   1.48243125E+08   8.92125733E+07   8.92125733E+07   1.30128529E+08   1.74634384E+08   1.74634384E+08
   2.96000000E-02   1.42553415E+08   8.54279670E+07   8.54279670E+07   1.24250759E+08   1.68161571E+08   1.68161571E+08
   2.98000000E-02   1.37063169E+08   8.18019349E+07   8.18019349E+07   1.18628978E+08   1.61910177E+08   1.61910177E+08
   3.00000000E-02   1.31766425E+08   7.83278672E+07   7.83278672E+07   1.13252851E+08   1.55873645E+08   1.55873645E+08
   3.02000000E-02   1.26657344E+08   7.49994292E+07   7.49994292E+07   1.08112397E+08   1.50045553E+08   1.50045553E+08
   3.04000000E-02   1.21730204E+08   7.18105499E+07   7.18105499E+07   1.03197979E+08   1.44419611E+08   1.44419611E+08
   3.06000000E-02   1.16979408E+08   6.87554114E+07   6.87554114E+07   9.85002987E+07   1.38989671E+08   1.38989671E+08
   3.08000000E-02   1.12399481E+08   6.58284384E+07   6.58284384E+07   9.40103889E+07   1.33749717E+08   1.33749717E+08
   3.10000000E-02   1.07985069E+08   6.30242884E+07   6.30242884E+07   8.97196049E+07   1.28693874E+08   1.28693874E+08
   3.12000000E-02   1.03730942E+08   6.03378416E+07   6.03378416E+07   8.56196173E+07   1.23816403E+08   1.23816403E+08
   3.14000000E-02   9.96319955E+07   5.77641922E+07   5.77641922E+07   8.17024037E+07   1.19111700E+08   1.19111700E+08
   3.16000000E-02   9.56832441E+07   5.52986391E+07   5.52986391E+07   7.79602411E+07   1.14574301E+08   1.14574301E+08
   3.18000000E-02   9.18798261E+07   5.29366774E+07   5.29366774E+07   7.43856973E+07   1.10198873E+08   1.10198873E+08
   3.20000000E-02   8.82170014E+07   5.06739905E+07   5.06739905E+07   7.09716231E+07   1.05980222E+08   1.05980222E+08
   3.22000000E-02   8.46901501E+07   4.85064418E+07   4.85064418E+07   6.77111438E+07   1.01913285E+08   1.01913285E+08
   3.24000000E-02   8.12947719E+07   4.64300675E+07   4.64300675E+07   6.45976513E+07   9.79931303E+07   9.79931303E+07
   3.26000000E-02   7.80264850E+07   4.44410691E+07   4.44410691E+07   6.16247960E+07   9.42149584E+07   9.42149584E+07
   3.28000000E-02   7.48810246E+07   4.25358065E+07   4.25358065E+07   5.87864787E+07   9.05740980E+07   9.05740980E+07
