# TBinMid=-0.025 ssec TBinWidth=0.01 ss EBinWidth=0.2MeV Fluence at Earth for this timebin in neutrinos per cm^2
# E(GeV)	NuE	NuMu	NuTau	aNuE	aNuMu	aNuTau
   1.38589050E-13   1.75764375E-62   3.86966101E-61   3.86966101E-61   0.00000000E+00   0.00000000E+00   0.00000000E+00
   2.00000000E-04   1.44469519E+00   3.18066767E+01   3.18066767E+01   0.00000000E+00   0.00000000E+00   0.00000000E+00
   4.00000000E-04   1.34154496E+02   2.95357020E+03   2.95357020E+03   0.00000000E+00   0.00000000E+00   0.00000000E+00
   6.00000000E-04   1.75832305E+03   3.87115657E+04   3.87115657E+04   0.00000000E+00   0.00000000E+00   0.00000000E+00
   8.00000000E-04   1.03146071E+04   2.27088299E+05   2.27088299E+05   0.00000000E+00   0.00000000E+00   0.00000000E+00
   1.00000000E-03   3.89056418E+04   8.56553808E+05   8.56553808E+05   0.00000000E+00   0.00000000E+00   0.00000000E+00
   1.20000000E-03   1.10911479E+05   2.44184765E+06   2.44184765E+06   0.00000000E+00   0.00000000E+00   0.00000000E+00
   1.40000000E-03   2.60523655E+05   5.73573700E+06   5.73573700E+06   0.00000000E+00   0.00000000E+00   0.00000000E+00
   1.60000000E-03   5.30936961E+05   1.16892064E+07   1.16892064E+07   0.00000000E+00   0.00000000E+00   0.00000000E+00
   1.80000000E-03   9.70609343E+05   2.13691149E+07   2.13691149E+07   0.00000000E+00   0.00000000E+00   0.00000000E+00
   2.00000000E-03   1.62836698E+06   3.58504288E+07   3.58504288E+07   0.00000000E+00   0.00000000E+00   0.00000000E+00
   2.20000000E-03   2.54822242E+06   5.61021362E+07   5.61021362E+07   0.00000000E+00   0.00000000E+00   0.00000000E+00
   2.40000000E-03   3.76467144E+06   8.28837030E+07   8.28837030E+07   0.00000000E+00   0.00000000E+00   0.00000000E+00
   2.60000000E-03   5.29902754E+06   1.16664371E+08   1.16664371E+08   0.00000000E+00   0.00000000E+00   0.00000000E+00
   2.80000000E-03   7.15711214E+06   1.57572305E+08   1.57572305E+08   0.00000000E+00   0.00000000E+00   0.00000000E+00
   3.00000000E-03   9.32839435E+06   2.05375656E+08   2.05375656E+08   0.00000000E+00   0.00000000E+00   0.00000000E+00
   3.20000000E-03   1.17864929E+07   2.59493608E+08   2.59493608E+08   0.00000000E+00   0.00000000E+00   0.00000000E+00
   3.40000000E-03   1.44908261E+07   3.19032709E+08   3.19032709E+08   0.00000000E+00   0.00000000E+00   0.00000000E+00
   3.60000000E-03   1.73891250E+07   3.82842194E+08   3.82842194E+08   0.00000000E+00   0.00000000E+00   0.00000000E+00
   3.80000000E-03   2.04204966E+07   4.49581431E+08   4.49581431E+08   0.00000000E+00   0.00000000E+00   0.00000000E+00
   4.00000000E-03   2.35187394E+07   5.17792918E+08   5.17792918E+08   0.00000000E+00   0.00000000E+00   0.00000000E+00
   4.20000000E-03   2.66156454E+07   5.85974974E+08   5.85974974E+08   0.00000000E+00   0.00000000E+00   0.00000000E+00
   4.40000000E-03   2.96440767E+07   6.52649478E+08   6.52649478E+08   0.00000000E+00   0.00000000E+00   0.00000000E+00
   4.60000000E-03   3.25406586E+07   7.16421161E+08   7.16421161E+08   0.00000000E+00   0.00000000E+00   0.00000000E+00
   4.80000000E-03   3.52479896E+07   7.76026260E+08   7.76026260E+08   0.00000000E+00   0.00000000E+00   0.00000000E+00
   5.00000000E-03   3.77163175E+07   8.30369424E+08   8.30369424E+08   0.00000000E+00   0.00000000E+00   0.00000000E+00
   5.20000000E-03   3.99046751E+07   8.78548711E+08   8.78548711E+08   0.00000000E+00   0.00000000E+00   0.00000000E+00
   5.40000000E-03   4.17815013E+07   9.19869263E+08   9.19869263E+08   0.00000000E+00   0.00000000E+00   0.00000000E+00
   5.60000000E-03   4.33247985E+07   9.53846781E+08   9.53846781E+08   0.00000000E+00   0.00000000E+00   0.00000000E+00
   5.80000000E-03   4.45218946E+07   9.80202270E+08   9.80202270E+08   0.00000000E+00   0.00000000E+00   0.00000000E+00
   6.00000000E-03   4.53688817E+07   9.98849695E+08   9.98849695E+08   0.00000000E+00   0.00000000E+00   0.00000000E+00
   6.20000000E-03   4.58698115E+07   1.00987826E+09   1.00987826E+09   0.00000000E+00   0.00000000E+00   0.00000000E+00
   6.40000000E-03   4.60357190E+07   1.01353091E+09   1.01353091E+09   0.00000000E+00   0.00000000E+00   0.00000000E+00
   6.60000000E-03   4.58835453E+07   1.01018062E+09   1.01018062E+09   0.00000000E+00   0.00000000E+00   0.00000000E+00
   6.80000000E-03   4.54350157E+07   1.00030571E+09   1.00030571E+09   0.00000000E+00   0.00000000E+00   0.00000000E+00
   7.00000000E-03   4.47155267E+07   9.84465310E+08   9.84465310E+08   0.00000000E+00   0.00000000E+00   0.00000000E+00
   7.20000000E-03   4.37530792E+07   9.63275888E+08   9.63275888E+08   0.00000000E+00   0.00000000E+00   0.00000000E+00
   7.40000000E-03   4.25772898E+07   9.37389490E+08   9.37389490E+08   0.00000000E+00   0.00000000E+00   0.00000000E+00
   7.60000000E-03   4.12185005E+07   9.07474133E+08   9.07474133E+08   0.00000000E+00   0.00000000E+00   0.00000000E+00
   7.80000000E-03   3.97070011E+07   8.74196684E+08   8.74196684E+08   0.00000000E+00   0.00000000E+00   0.00000000E+00
   8.00000000E-03   3.80723696E+07   8.38208334E+08   8.38208334E+08   0.00000000E+00   0.00000000E+00   0.00000000E+00
   8.20000000E-03   3.63429316E+07   8.00132707E+08   8.00132707E+08   0.00000000E+00   0.00000000E+00   0.00000000E+00
   8.40000000E-03   3.45453354E+07   7.60556495E+08   7.60556495E+08   0.00000000E+00   0.00000000E+00   0.00000000E+00
   8.60000000E-03   3.27042350E+07   7.20022490E+08   7.20022490E+08   0.00000000E+00   0.00000000E+00   0.00000000E+00
   8.80000000E-03   3.08420722E+07   6.79024768E+08   6.79024768E+08   0.00000000E+00   0.00000000E+00   0.00000000E+00
   9.00000000E-03   2.89789455E+07   6.38005827E+08   6.38005827E+08   0.00000000E+00   0.00000000E+00   0.00000000E+00
   9.20000000E-03   2.71325558E+07   5.97355370E+08   5.97355370E+08   0.00000000E+00   0.00000000E+00   0.00000000E+00
   9.40000000E-03   2.53182156E+07   5.57410520E+08   5.57410520E+08   0.00000000E+00   0.00000000E+00   0.00000000E+00
   9.60000000E-03   2.35489107E+07   5.18457175E+08   5.18457175E+08   0.00000000E+00   0.00000000E+00   0.00000000E+00
   9.80000000E-03   2.18354032E+07   4.80732278E+08   4.80732278E+08   0.00000000E+00   0.00000000E+00   0.00000000E+00
   1.00000000E-02   2.01863664E+07   4.44426777E+08   4.44426777E+08   0.00000000E+00   0.00000000E+00   0.00000000E+00
   1.02000000E-02   1.86085411E+07   4.09689084E+08   4.09689084E+08   0.00000000E+00   0.00000000E+00   0.00000000E+00
   1.04000000E-02   1.71069075E+07   3.76628840E+08   3.76628840E+08   0.00000000E+00   0.00000000E+00   0.00000000E+00
   1.06000000E-02   1.56848637E+07   3.45320862E+08   3.45320862E+08   0.00000000E+00   0.00000000E+00   0.00000000E+00
   1.08000000E-02   1.43444071E+07   3.15809121E+08   3.15809121E+08   0.00000000E+00   0.00000000E+00   0.00000000E+00
   1.10000000E-02   1.30863125E+07   2.88110678E+08   2.88110678E+08   0.00000000E+00   0.00000000E+00   0.00000000E+00
   1.12000000E-02   1.19103046E+07   2.62219471E+08   2.62219471E+08   0.00000000E+00   0.00000000E+00   0.00000000E+00
   1.14000000E-02   1.08152212E+07   2.38109911E+08   2.38109911E+08   0.00000000E+00   0.00000000E+00   0.00000000E+00
   1.16000000E-02   9.79916530E+06   2.15740236E+08   2.15740236E+08   0.00000000E+00   0.00000000E+00   0.00000000E+00
   1.18000000E-02   8.85964568E+06   1.95055599E+08   1.95055599E+08   0.00000000E+00   0.00000000E+00   0.00000000E+00
   1.20000000E-02   7.99370358E+06   1.75990857E+08   1.75990857E+08   0.00000000E+00   0.00000000E+00   0.00000000E+00
   1.22000000E-02   7.19802663E+06   1.58473086E+08   1.58473086E+08   0.00000000E+00   0.00000000E+00   0.00000000E+00
   1.24000000E-02   6.46904941E+06   1.42423789E+08   1.42423789E+08   0.00000000E+00   0.00000000E+00   0.00000000E+00
   1.26000000E-02   5.80304125E+06   1.27760830E+08   1.27760830E+08   0.00000000E+00   0.00000000E+00   0.00000000E+00
   1.28000000E-02   5.19618169E+06   1.14400098E+08   1.14400098E+08   0.00000000E+00   0.00000000E+00   0.00000000E+00
   1.30000000E-02   4.64462468E+06   1.02256916E+08   1.02256916E+08   0.00000000E+00   0.00000000E+00   0.00000000E+00
   1.32000000E-02   4.14455202E+06   9.12472241E+07   9.12472241E+07   0.00000000E+00   0.00000000E+00   0.00000000E+00
   1.34000000E-02   3.69221727E+06   8.12885387E+07   8.12885387E+07   0.00000000E+00   0.00000000E+00   0.00000000E+00
   1.36000000E-02   3.28398098E+06   7.23007330E+07   7.23007330E+07   0.00000000E+00   0.00000000E+00   0.00000000E+00
   1.38000000E-02   2.91633811E+06   6.42066394E+07   6.42066394E+07   0.00000000E+00   0.00000000E+00   0.00000000E+00
   1.40000000E-02   2.58593874E+06   5.69325059E+07   5.69325059E+07   0.00000000E+00   0.00000000E+00   0.00000000E+00
   1.42000000E-02   2.28960289E+06   5.04083210E+07   5.04083210E+07   0.00000000E+00   0.00000000E+00   0.00000000E+00
   1.44000000E-02   2.02433019E+06   4.45680280E+07   4.45680280E+07   0.00000000E+00   0.00000000E+00   0.00000000E+00
   1.46000000E-02   1.78730532E+06   3.93496446E+07   3.93496446E+07   0.00000000E+00   0.00000000E+00   0.00000000E+00
   1.48000000E-02   1.57589988E+06   3.46953034E+07   3.46953034E+07   0.00000000E+00   0.00000000E+00   0.00000000E+00
   1.50000000E-02   1.38767126E+06   3.05512273E+07   3.05512273E+07   0.00000000E+00   0.00000000E+00   0.00000000E+00
   1.52000000E-02   1.22035916E+06   2.68676531E+07   2.68676531E+07   0.00000000E+00   0.00000000E+00   0.00000000E+00
   1.54000000E-02   1.07188021E+06   2.35987131E+07   2.35987131E+07   0.00000000E+00   0.00000000E+00   0.00000000E+00
   1.56000000E-02   9.40321192E+05   2.07022853E+07   2.07022853E+07   0.00000000E+00   0.00000000E+00   0.00000000E+00
   1.58000000E-02   8.23931129E+05   1.81398202E+07   1.81398202E+07   0.00000000E+00   0.00000000E+00   0.00000000E+00
   1.60000000E-02   7.21112719E+05   1.58761511E+07   1.58761511E+07   0.00000000E+00   0.00000000E+00   0.00000000E+00
   1.62000000E-02   6.30413232E+05   1.38792944E+07   1.38792944E+07   0.00000000E+00   0.00000000E+00   0.00000000E+00
   1.64000000E-02   5.50515200E+05   1.21202445E+07   1.21202445E+07   0.00000000E+00   0.00000000E+00   0.00000000E+00
   1.66000000E-02   4.80227051E+05   1.05727676E+07   1.05727676E+07   0.00000000E+00   0.00000000E+00   0.00000000E+00
   1.68000000E-02   4.18473835E+05   9.21319738E+06   9.21319738E+06   0.00000000E+00   0.00000000E+00   0.00000000E+00
   1.70000000E-02   3.64288165E+05   8.02023564E+06   8.02023564E+06   0.00000000E+00   0.00000000E+00   0.00000000E+00
   1.72000000E-02   3.16801469E+05   6.97475977E+06   6.97475977E+06   0.00000000E+00   0.00000000E+00   0.00000000E+00
   1.74000000E-02   2.75235621E+05   6.05963836E+06   6.05963836E+06   0.00000000E+00   0.00000000E+00   0.00000000E+00
   1.76000000E-02   2.38894985E+05   5.25955620E+06   5.25955620E+06   0.00000000E+00   0.00000000E+00   0.00000000E+00
   1.78000000E-02   2.07158930E+05   4.56084934E+06   4.56084934E+06   0.00000000E+00   0.00000000E+00   0.00000000E+00
   1.80000000E-02   1.79474810E+05   3.95135062E+06   3.95135062E+06   0.00000000E+00   0.00000000E+00   0.00000000E+00
   1.82000000E-02   1.55351426E+05   3.42024575E+06   3.42024575E+06   0.00000000E+00   0.00000000E+00   0.00000000E+00
   1.84000000E-02   1.34352977E+05   2.95793999E+06   2.95793999E+06   0.00000000E+00   0.00000000E+00   0.00000000E+00
   1.86000000E-02   1.16093466E+05   2.55593524E+06   2.55593524E+06   0.00000000E+00   0.00000000E+00   0.00000000E+00
   1.88000000E-02   1.00231580E+05   2.20671701E+06   2.20671701E+06   0.00000000E+00   0.00000000E+00   0.00000000E+00
   1.90000000E-02   8.64659883E+04   1.90365120E+06   1.90365120E+06   0.00000000E+00   0.00000000E+00   0.00000000E+00
   1.92000000E-02   7.45310721E+04   1.64088987E+06   1.64088987E+06   0.00000000E+00   0.00000000E+00   0.00000000E+00
   1.94000000E-02   6.41930352E+04   1.41328574E+06   1.41328574E+06   0.00000000E+00   0.00000000E+00   0.00000000E+00
   1.96000000E-02   5.52463866E+04   1.21631467E+06   1.21631467E+06   0.00000000E+00   0.00000000E+00   0.00000000E+00
   1.98000000E-02   4.75107625E+04   1.04600574E+06   1.04600574E+06   0.00000000E+00   0.00000000E+00   0.00000000E+00
   2.00000000E-02   4.08280660E+04   8.98878256E+05   8.98878256E+05   0.00000000E+00   0.00000000E+00   0.00000000E+00
   2.02000000E-02   3.50598970E+04   7.71885180E+05   7.71885180E+05   0.00000000E+00   0.00000000E+00   0.00000000E+00
   2.04000000E-02   3.00852506E+04   6.62362444E+05   6.62362444E+05   0.00000000E+00   0.00000000E+00   0.00000000E+00
   2.06000000E-02   2.57984594E+04   5.67983655E+05   5.67983655E+05   0.00000000E+00   0.00000000E+00   0.00000000E+00
   2.08000000E-02   2.21073583E+04   4.86719690E+05   4.86719690E+05   0.00000000E+00   0.00000000E+00   0.00000000E+00
   2.10000000E-02   1.89316515E+04   4.16802742E+05   4.16802742E+05   0.00000000E+00   0.00000000E+00   0.00000000E+00
   2.12000000E-02   1.62014617E+04   3.56694380E+05   3.56694380E+05   0.00000000E+00   0.00000000E+00   0.00000000E+00
   2.14000000E-02   1.38560444E+04   3.05057238E+05   3.05057238E+05   0.00000000E+00   0.00000000E+00   0.00000000E+00
   2.16000000E-02   1.18426496E+04   2.60729964E+05   2.60729964E+05   0.00000000E+00   0.00000000E+00   0.00000000E+00
   2.18000000E-02   1.01155165E+04   2.22705084E+05   2.22705084E+05   0.00000000E+00   0.00000000E+00   0.00000000E+00
   2.20000000E-02   8.63498762E+03   1.90109485E+05   1.90109485E+05   0.00000000E+00   0.00000000E+00   0.00000000E+00
   2.22000000E-02   7.36672752E+03   1.62187236E+05   1.62187236E+05   0.00000000E+00   0.00000000E+00   0.00000000E+00
   2.24000000E-02   6.28103714E+03   1.38284476E+05   1.38284476E+05   0.00000000E+00   0.00000000E+00   0.00000000E+00
   2.26000000E-02   5.35225130E+03   1.17836155E+05   1.17836155E+05   0.00000000E+00   0.00000000E+00   0.00000000E+00
   2.28000000E-02   4.55821080E+03   1.00354412E+05   1.00354412E+05   0.00000000E+00   0.00000000E+00   0.00000000E+00
   2.30000000E-02   3.87980028E+03   8.54184008E+04   8.54184008E+04   0.00000000E+00   0.00000000E+00   0.00000000E+00
   2.32000000E-02   3.30054423E+03   7.26653925E+04   7.26653925E+04   0.00000000E+00   0.00000000E+00   0.00000000E+00
   2.34000000E-02   2.80625435E+03   6.17830150E+04   6.17830150E+04   0.00000000E+00   0.00000000E+00   0.00000000E+00
   2.36000000E-02   2.38472196E+03   5.25024799E+04   5.25024799E+04   0.00000000E+00   0.00000000E+00   0.00000000E+00
   2.38000000E-02   2.02545024E+03   4.45926872E+04   4.45926872E+04   0.00000000E+00   0.00000000E+00   0.00000000E+00
   2.40000000E-02   1.71942119E+03   3.78550950E+04   3.78550950E+04   0.00000000E+00   0.00000000E+00   0.00000000E+00
   2.42000000E-02   1.45889323E+03   3.21192634E+04   3.21192634E+04   0.00000000E+00   0.00000000E+00   0.00000000E+00
   2.44000000E-02   1.23722552E+03   2.72389859E+04   2.72389859E+04   0.00000000E+00   0.00000000E+00   0.00000000E+00
   2.46000000E-02   1.04872553E+03   2.30889354E+04   2.30889354E+04   0.00000000E+00   0.00000000E+00   0.00000000E+00
   2.48000000E-02   8.88517199E+02   1.95617591E+04   1.95617591E+04   0.00000000E+00   0.00000000E+00   0.00000000E+00
   2.50000000E-02   7.52426683E+02   1.65655651E+04   1.65655651E+04   0.00000000E+00   0.00000000E+00   0.00000000E+00
   2.52000000E-02   6.36883705E+02   1.40217495E+04   1.40217495E+04   0.00000000E+00   0.00000000E+00   0.00000000E+00
   2.54000000E-02   5.38836318E+02   1.18631201E+04   1.18631201E+04   0.00000000E+00   0.00000000E+00   0.00000000E+00
   2.56000000E-02   4.55677360E+02   1.00322771E+04   1.00322771E+04   0.00000000E+00   0.00000000E+00   0.00000000E+00
   2.58000000E-02   3.85181074E+02   8.48021780E+03   8.48021780E+03   0.00000000E+00   0.00000000E+00   0.00000000E+00
   2.60000000E-02   3.25448505E+02   7.16513451E+03   7.16513451E+03   0.00000000E+00   0.00000000E+00   0.00000000E+00
   2.62000000E-02   2.74860520E+02   6.05138007E+03   6.05138007E+03   0.00000000E+00   0.00000000E+00   0.00000000E+00
   2.64000000E-02   2.32037411E+02   5.10857858E+03   5.10857858E+03   0.00000000E+00   0.00000000E+00   0.00000000E+00
   2.66000000E-02   1.95804191E+02   4.31086130E+03   4.31086130E+03   0.00000000E+00   0.00000000E+00   0.00000000E+00
   2.68000000E-02   1.65160800E+02   3.63621074E+03   3.63621074E+03   0.00000000E+00   0.00000000E+00   0.00000000E+00
   2.70000000E-02   1.39256551E+02   3.06589800E+03   3.06589800E+03   0.00000000E+00   0.00000000E+00   0.00000000E+00
   2.72000000E-02   1.17368224E+02   2.58400054E+03   2.58400054E+03   0.00000000E+00   0.00000000E+00   0.00000000E+00
   2.74000000E-02   9.88813067E+01   2.17698914E+03   2.17698914E+03   0.00000000E+00   0.00000000E+00   0.00000000E+00
   2.76000000E-02   8.32739366E+01   1.83337440E+03   1.83337440E+03   0.00000000E+00   0.00000000E+00   0.00000000E+00
   2.78000000E-02   7.01031682E+01   1.54340432E+03   1.54340432E+03   0.00000000E+00   0.00000000E+00   0.00000000E+00
   2.80000000E-02   5.89932348E+01   1.29880597E+03   1.29880597E+03   0.00000000E+00   0.00000000E+00   0.00000000E+00
   2.82000000E-02   4.96255241E+01   1.09256472E+03   1.09256472E+03   0.00000000E+00   0.00000000E+00   0.00000000E+00
   2.84000000E-02   4.17300204E+01   9.18735851E+02   9.18735851E+02   0.00000000E+00   0.00000000E+00   0.00000000E+00
   2.86000000E-02   3.50780063E+01   7.72283877E+02   7.72283877E+02   0.00000000E+00   0.00000000E+00   0.00000000E+00
   2.88000000E-02   2.94758401E+01   6.48945549E+02   6.48945549E+02   0.00000000E+00   0.00000000E+00   0.00000000E+00
   2.90000000E-02   2.47596553E+01   5.45113153E+02   5.45113153E+02   0.00000000E+00   0.00000000E+00   0.00000000E+00
   2.92000000E-02   2.07908476E+01   4.57735148E+02   4.57735148E+02   0.00000000E+00   0.00000000E+00   0.00000000E+00
   2.94000000E-02   1.74522342E+01   3.84231618E+02   3.84231618E+02   0.00000000E+00   0.00000000E+00   0.00000000E+00
   2.96000000E-02   1.46447886E+01   3.22422377E+02   3.22422377E+02   0.00000000E+00   0.00000000E+00   0.00000000E+00
   2.98000000E-02   1.22848648E+01   2.70465857E+02   2.70465857E+02   0.00000000E+00   0.00000000E+00   0.00000000E+00
   3.00000000E-02   1.03018394E+01   2.26807202E+02   2.26807202E+02   0.00000000E+00   0.00000000E+00   0.00000000E+00
   3.02000000E-02   8.63611003E+00   1.90134197E+02   1.90134197E+02   0.00000000E+00   0.00000000E+00   0.00000000E+00
   3.04000000E-02   7.23739719E+00   1.59339876E+02   1.59339876E+02   0.00000000E+00   0.00000000E+00   0.00000000E+00
   3.06000000E-02   6.06330345E+00   1.33490811E+02   1.33490811E+02   0.00000000E+00   0.00000000E+00   0.00000000E+00
   3.08000000E-02   5.07809279E+00   1.11800230E+02   1.11800230E+02   0.00000000E+00   0.00000000E+00   0.00000000E+00
   3.10000000E-02   4.25165612E+00   9.36052478E+01   9.36052478E+01   0.00000000E+00   0.00000000E+00   0.00000000E+00
   3.12000000E-02   3.55863550E+00   7.83475778E+01   7.83475778E+01   0.00000000E+00   0.00000000E+00   0.00000000E+00
   3.14000000E-02   2.97768283E+00   6.55572161E+01   6.55572161E+01   0.00000000E+00   0.00000000E+00   0.00000000E+00
   3.16000000E-02   2.49083271E+00   5.48386338E+01   5.48386338E+01   0.00000000E+00   0.00000000E+00   0.00000000E+00
   3.18000000E-02   2.08297228E+00   4.58591031E+01   4.58591031E+01   0.00000000E+00   0.00000000E+00   0.00000000E+00
   3.20000000E-02   1.74139306E+00   3.83388317E+01   3.83388317E+01   0.00000000E+00   0.00000000E+00   0.00000000E+00
   3.22000000E-02   1.45541239E+00   3.20426284E+01   3.20426284E+01   0.00000000E+00   0.00000000E+00   0.00000000E+00
   3.24000000E-02   1.21605380E+00   2.67728654E+01   2.67728654E+01   0.00000000E+00   0.00000000E+00   0.00000000E+00
   3.26000000E-02   1.01577722E+00   2.23635393E+01   2.23635393E+01   0.00000000E+00   0.00000000E+00   0.00000000E+00
   3.28000000E-02   8.48251387E-01   1.86752595E+01   1.86752595E+01   0.00000000E+00   0.00000000E+00   0.00000000E+00
