# TBinMid=-0.015 ssec TBinWidth=0.01 ss EBinWidth=0.2MeV Fluence at Earth for this timebin in neutrinos per cm^2
# E(GeV)	NuE	NuMu	NuTau	aNuE	aNuMu	aNuTau
   1.38589050E-13   2.62213211E-70   5.77293456E-69   5.77293456E-69   0.00000000E+00   0.00000000E+00   0.00000000E+00
   2.00000000E-04   2.77313808E-01   6.10539210E+00   6.10539210E+00   0.00000000E+00   0.00000000E+00   0.00000000E+00
   4.00000000E-04   4.40325794E+01   9.69429416E+02   9.69429416E+02   0.00000000E+00   0.00000000E+00   0.00000000E+00
   6.00000000E-04   7.82480550E+02   1.72272366E+04   1.72272366E+04   0.00000000E+00   0.00000000E+00   0.00000000E+00
   8.00000000E-04   5.66548089E+03   1.24732276E+05   1.24732276E+05   0.00000000E+00   0.00000000E+00   0.00000000E+00
   1.00000000E-03   2.50690194E+04   5.51924169E+05   5.51924169E+05   0.00000000E+00   0.00000000E+00   0.00000000E+00
   1.20000000E-03   8.12210469E+04   1.78817760E+06   1.78817760E+06   0.00000000E+00   0.00000000E+00   0.00000000E+00
   1.40000000E-03   2.12191870E+05   4.67165548E+06   4.67165548E+06   0.00000000E+00   0.00000000E+00   0.00000000E+00
   1.60000000E-03   4.73522907E+05   1.04251679E+07   1.04251679E+07   0.00000000E+00   0.00000000E+00   0.00000000E+00
   1.80000000E-03   9.36813953E+05   2.06250693E+07   2.06250693E+07   0.00000000E+00   0.00000000E+00   0.00000000E+00
   2.00000000E-03   1.68537318E+06   3.71054878E+07   3.71054878E+07   0.00000000E+00   0.00000000E+00   0.00000000E+00
   2.20000000E-03   2.80762747E+06   6.18132459E+07   6.18132459E+07   0.00000000E+00   0.00000000E+00   0.00000000E+00
   2.40000000E-03   4.38931359E+06   9.66359401E+07   9.66359401E+07   0.00000000E+00   0.00000000E+00   0.00000000E+00
   2.60000000E-03   6.50553867E+06   1.43227143E+08   1.43227143E+08   0.00000000E+00   0.00000000E+00   0.00000000E+00
   2.80000000E-03   9.21367418E+06   2.02849956E+08   2.02849956E+08   0.00000000E+00   0.00000000E+00   0.00000000E+00
   3.00000000E-03   1.25478072E+07   2.76254844E+08   2.76254844E+08   0.00000000E+00   0.00000000E+00   0.00000000E+00
   3.20000000E-03   1.65151850E+07   3.63601369E+08   3.63601369E+08   0.00000000E+00   0.00000000E+00   0.00000000E+00
   3.40000000E-03   2.10948098E+07   4.64427236E+08   4.64427236E+08   0.00000000E+00   0.00000000E+00   0.00000000E+00
   3.60000000E-03   2.62380974E+07   5.77662807E+08   5.77662807E+08   0.00000000E+00   0.00000000E+00   0.00000000E+00
   3.80000000E-03   3.18713379E+07   7.01685274E+08   7.01685274E+08   0.00000000E+00   0.00000000E+00   0.00000000E+00
   4.00000000E-03   3.78995768E+07   8.34404097E+08   8.34404097E+08   0.00000000E+00   0.00000000E+00   0.00000000E+00
   4.20000000E-03   4.42114807E+07   9.73368140E+08   9.73368140E+08   0.00000000E+00   0.00000000E+00   0.00000000E+00
   4.40000000E-03   5.06847474E+07   1.11588478E+09   1.11588478E+09   0.00000000E+00   0.00000000E+00   0.00000000E+00
   4.60000000E-03   5.71916515E+07   1.25914198E+09   1.25914198E+09   0.00000000E+00   0.00000000E+00   0.00000000E+00
   4.80000000E-03   6.36043769E+07   1.40032573E+09   1.40032573E+09   0.00000000E+00   0.00000000E+00   0.00000000E+00
   5.00000000E-03   6.97998605E+07   1.53672665E+09   1.53672665E+09   0.00000000E+00   0.00000000E+00   0.00000000E+00
   5.20000000E-03   7.56639482E+07   1.66583148E+09   1.66583148E+09   0.00000000E+00   0.00000000E+00   0.00000000E+00
   5.40000000E-03   8.10947427E+07   1.78539686E+09   1.78539686E+09   0.00000000E+00   0.00000000E+00   0.00000000E+00
   5.60000000E-03   8.60050886E+07   1.89350394E+09   1.89350394E+09   0.00000000E+00   0.00000000E+00   0.00000000E+00
   5.80000000E-03   9.03241978E+07   1.98859425E+09   1.98859425E+09   0.00000000E+00   0.00000000E+00   0.00000000E+00
   6.00000000E-03   9.39984656E+07   2.06948761E+09   2.06948761E+09   0.00000000E+00   0.00000000E+00   0.00000000E+00
   6.20000000E-03   9.69915587E+07   2.13538410E+09   2.13538410E+09   0.00000000E+00   0.00000000E+00   0.00000000E+00
   6.40000000E-03   9.92838799E+07   2.18585227E+09   2.18585227E+09   0.00000000E+00   0.00000000E+00   0.00000000E+00
   6.60000000E-03   1.00871524E+08   2.22080614E+09   2.22080614E+09   0.00000000E+00   0.00000000E+00   0.00000000E+00
   6.80000000E-03   1.01764846E+08   2.24047368E+09   2.24047368E+09   0.00000000E+00   0.00000000E+00   0.00000000E+00
   7.00000000E-03   1.01986750E+08   2.24535917E+09   2.24535917E+09   0.00000000E+00   0.00000000E+00   0.00000000E+00
   7.20000000E-03   1.01570817E+08   2.23620190E+09   2.23620190E+09   0.00000000E+00   0.00000000E+00   0.00000000E+00
   7.40000000E-03   1.00559349E+08   2.21393323E+09   2.21393323E+09   0.00000000E+00   0.00000000E+00   0.00000000E+00
   7.60000000E-03   9.90014252E+07   2.17963370E+09   2.17963370E+09   0.00000000E+00   0.00000000E+00   0.00000000E+00
   7.80000000E-03   9.69510285E+07   2.13449178E+09   2.13449178E+09   0.00000000E+00   0.00000000E+00   0.00000000E+00
   8.00000000E-03   9.44652905E+07   2.07976532E+09   2.07976532E+09   0.00000000E+00   0.00000000E+00   0.00000000E+00
   8.20000000E-03   9.16028981E+07   2.01674635E+09   2.01674635E+09   0.00000000E+00   0.00000000E+00   0.00000000E+00
   8.40000000E-03   8.84226823E+07   1.94673014E+09   1.94673014E+09   0.00000000E+00   0.00000000E+00   0.00000000E+00
   8.60000000E-03   8.49824034E+07   1.87098832E+09   1.87098832E+09   0.00000000E+00   0.00000000E+00   0.00000000E+00
   8.80000000E-03   8.13377369E+07   1.79074667E+09   1.79074667E+09   0.00000000E+00   0.00000000E+00   0.00000000E+00
   9.00000000E-03   7.75414564E+07   1.70716705E+09   1.70716705E+09   0.00000000E+00   0.00000000E+00   0.00000000E+00
   9.20000000E-03   7.36428045E+07   1.62133361E+09   1.62133361E+09   0.00000000E+00   0.00000000E+00   0.00000000E+00
   9.40000000E-03   6.96870372E+07   1.53424271E+09   1.53424271E+09   0.00000000E+00   0.00000000E+00   0.00000000E+00
   9.60000000E-03   6.57151265E+07   1.44679638E+09   1.44679638E+09   0.00000000E+00   0.00000000E+00   0.00000000E+00
   9.80000000E-03   6.17636009E+07   1.35979887E+09   1.35979887E+09   0.00000000E+00   0.00000000E+00   0.00000000E+00
   1.00000000E-02   5.78645071E+07   1.27395570E+09   1.27395570E+09   0.00000000E+00   0.00000000E+00   0.00000000E+00
   1.02000000E-02   5.40454705E+07   1.18987508E+09   1.18987508E+09   0.00000000E+00   0.00000000E+00   0.00000000E+00
   1.04000000E-02   5.03298389E+07   1.10807105E+09   1.10807105E+09   0.00000000E+00   0.00000000E+00   0.00000000E+00
   1.06000000E-02   4.67368907E+07   1.02896803E+09   1.02896803E+09   0.00000000E+00   0.00000000E+00   0.00000000E+00
   1.08000000E-02   4.32820910E+07   9.52906525E+08   9.52906525E+08   0.00000000E+00   0.00000000E+00   0.00000000E+00
   1.10000000E-02   3.99773830E+07   8.80149462E+08   8.80149462E+08   0.00000000E+00   0.00000000E+00   0.00000000E+00
   1.12000000E-02   3.68315004E+07   8.10889128E+08   8.10889128E+08   0.00000000E+00   0.00000000E+00   0.00000000E+00
   1.14000000E-02   3.38502912E+07   7.45254275E+08   7.45254275E+08   0.00000000E+00   0.00000000E+00   0.00000000E+00
   1.16000000E-02   3.10370436E+07   6.83317296E+08   6.83317296E+08   0.00000000E+00   0.00000000E+00   0.00000000E+00
   1.18000000E-02   2.83928061E+07   6.25101273E+08   6.25101273E+08   0.00000000E+00   0.00000000E+00   0.00000000E+00
   1.20000000E-02   2.59166966E+07   5.70586787E+08   5.70586787E+08   0.00000000E+00   0.00000000E+00   0.00000000E+00
   1.22000000E-02   2.36061956E+07   5.19718371E+08   5.19718371E+08   0.00000000E+00   0.00000000E+00   0.00000000E+00
   1.24000000E-02   2.14574208E+07   4.72410546E+08   4.72410546E+08   0.00000000E+00   0.00000000E+00   0.00000000E+00
   1.26000000E-02   1.94653794E+07   4.28553395E+08   4.28553395E+08   0.00000000E+00   0.00000000E+00   0.00000000E+00
   1.28000000E-02   1.76241994E+07   3.88017635E+08   3.88017635E+08   0.00000000E+00   0.00000000E+00   0.00000000E+00
   1.30000000E-02   1.59273361E+07   3.50659179E+08   3.50659179E+08   0.00000000E+00   0.00000000E+00   0.00000000E+00
   1.32000000E-02   1.43677572E+07   3.16323201E+08   3.16323201E+08   0.00000000E+00   0.00000000E+00   0.00000000E+00
   1.34000000E-02   1.29381042E+07   2.84847696E+08   2.84847696E+08   0.00000000E+00   0.00000000E+00   0.00000000E+00
   1.36000000E-02   1.16308331E+07   2.56066573E+08   2.56066573E+08   0.00000000E+00   0.00000000E+00   0.00000000E+00
   1.38000000E-02   1.04383345E+07   2.29812304E+08   2.29812304E+08   0.00000000E+00   0.00000000E+00   0.00000000E+00
   1.40000000E-02   9.35303507E+06   2.05918151E+08   2.05918151E+08   0.00000000E+00   0.00000000E+00   0.00000000E+00
   1.42000000E-02   8.36748134E+06   1.84220017E+08   1.84220017E+08   0.00000000E+00   0.00000000E+00   0.00000000E+00
   1.44000000E-02   7.47440833E+06   1.64557957E+08   1.64557957E+08   0.00000000E+00   0.00000000E+00   0.00000000E+00
   1.46000000E-02   6.66679369E+06   1.46777363E+08   1.46777363E+08   0.00000000E+00   0.00000000E+00   0.00000000E+00
   1.48000000E-02   5.93789955E+06   1.30729895E+08   1.30729895E+08   0.00000000E+00   0.00000000E+00   0.00000000E+00
   1.50000000E-02   5.28130336E+06   1.16274152E+08   1.16274152E+08   0.00000000E+00   0.00000000E+00   0.00000000E+00
   1.52000000E-02   4.69091919E+06   1.03276145E+08   1.03276145E+08   0.00000000E+00   0.00000000E+00   0.00000000E+00
   1.54000000E-02   4.16101096E+06   9.16095872E+07   9.16095872E+07   0.00000000E+00   0.00000000E+00   0.00000000E+00
   1.56000000E-02   3.68619868E+06   8.11560321E+07   8.11560321E+07   0.00000000E+00   0.00000000E+00   0.00000000E+00
   1.58000000E-02   3.26145898E+06   7.18048844E+07   7.18048844E+07   0.00000000E+00   0.00000000E+00   0.00000000E+00
   1.60000000E-02   2.88212090E+06   6.34533070E+07   6.34533070E+07   0.00000000E+00   0.00000000E+00   0.00000000E+00
   1.62000000E-02   2.54385784E+06   5.60060449E+07   5.60060449E+07   0.00000000E+00   0.00000000E+00   0.00000000E+00
   1.64000000E-02   2.24267651E+06   4.93751811E+07   4.93751811E+07   0.00000000E+00   0.00000000E+00   0.00000000E+00
   1.66000000E-02   1.97490364E+06   4.34798439E+07   4.34798439E+07   0.00000000E+00   0.00000000E+00   0.00000000E+00
   1.68000000E-02   1.73717088E+06   3.82458756E+07   3.82458756E+07   0.00000000E+00   0.00000000E+00   0.00000000E+00
   1.70000000E-02   1.52639869E+06   3.36054761E+07   3.36054761E+07   0.00000000E+00   0.00000000E+00   0.00000000E+00
   1.72000000E-02   1.33977941E+06   2.94968313E+07   2.94968313E+07   0.00000000E+00   0.00000000E+00   0.00000000E+00
   1.74000000E-02   1.17476000E+06   2.58637335E+07   2.58637335E+07   0.00000000E+00   0.00000000E+00   0.00000000E+00
   1.76000000E-02   1.02902481E+06   2.26552006E+07   2.26552006E+07   0.00000000E+00   0.00000000E+00   0.00000000E+00
   1.78000000E-02   9.00478487E+05   1.98251010E+07   1.98251010E+07   0.00000000E+00   0.00000000E+00   0.00000000E+00
   1.80000000E-02   7.87229317E+05   1.73317863E+07   1.73317863E+07   0.00000000E+00   0.00000000E+00   0.00000000E+00
   1.82000000E-02   6.87573137E+05   1.51377374E+07   1.51377374E+07   0.00000000E+00   0.00000000E+00   0.00000000E+00
   1.84000000E-02   5.99977914E+05   1.32092248E+07   1.32092248E+07   0.00000000E+00   0.00000000E+00   0.00000000E+00
   1.86000000E-02   5.23069085E+05   1.15159858E+07   1.15159858E+07   0.00000000E+00   0.00000000E+00   0.00000000E+00
   1.88000000E-02   4.55615714E+05   1.00309199E+07   1.00309199E+07   0.00000000E+00   0.00000000E+00   0.00000000E+00
   1.90000000E-02   3.96517487E+05   8.72980237E+06   8.72980237E+06   0.00000000E+00   0.00000000E+00   0.00000000E+00
   1.92000000E-02   3.44792578E+05   7.59101719E+06   7.59101719E+06   0.00000000E+00   0.00000000E+00   0.00000000E+00
   1.94000000E-02   2.99566357E+05   6.59530835E+06   6.59530835E+06   0.00000000E+00   0.00000000E+00   0.00000000E+00
   1.96000000E-02   2.60060956E+05   5.72555013E+06   5.72555013E+06   0.00000000E+00   0.00000000E+00   0.00000000E+00
   1.98000000E-02   2.25585641E+05   4.96653521E+06   4.96653521E+06   0.00000000E+00   0.00000000E+00   0.00000000E+00
   2.00000000E-02   1.95527977E+05   4.30478012E+06   4.30478012E+06   0.00000000E+00   0.00000000E+00   0.00000000E+00
   2.02000000E-02   1.69345744E+05   3.72834723E+06   3.72834723E+06   0.00000000E+00   0.00000000E+00   0.00000000E+00
   2.04000000E-02   1.46559561E+05   3.22668242E+06   3.22668242E+06   0.00000000E+00   0.00000000E+00   0.00000000E+00
   2.06000000E-02   1.26746185E+05   2.79046746E+06   2.79046746E+06   0.00000000E+00   0.00000000E+00   0.00000000E+00
   2.08000000E-02   1.09532423E+05   2.41148608E+06   2.41148608E+06   0.00000000E+00   0.00000000E+00   0.00000000E+00
   2.10000000E-02   9.45896374E+04   2.08250296E+06   2.08250296E+06   0.00000000E+00   0.00000000E+00   0.00000000E+00
   2.12000000E-02   8.16287863E+04   1.79715446E+06   1.79715446E+06   0.00000000E+00   0.00000000E+00   0.00000000E+00
   2.14000000E-02   7.03959551E+04   1.54985037E+06   1.54985037E+06   0.00000000E+00   0.00000000E+00   0.00000000E+00
   2.16000000E-02   6.06683492E+04   1.33568560E+06   1.33568560E+06   0.00000000E+00   0.00000000E+00   0.00000000E+00
   2.18000000E-02   5.22507008E+04   1.15036110E+06   1.15036110E+06   0.00000000E+00   0.00000000E+00   0.00000000E+00
   2.20000000E-02   4.49720567E+04   9.90113123E+05   9.90113123E+05   0.00000000E+00   0.00000000E+00   0.00000000E+00
   2.22000000E-02   3.86829106E+04   8.51650117E+05   8.51650117E+05   0.00000000E+00   0.00000000E+00   0.00000000E+00
   2.24000000E-02   3.32526484E+04   7.32096461E+05   7.32096461E+05   0.00000000E+00   0.00000000E+00   0.00000000E+00
   2.26000000E-02   2.85672771E+04   6.28942459E+05   6.28942459E+05   0.00000000E+00   0.00000000E+00   0.00000000E+00
   2.28000000E-02   2.45274074E+04   5.39999939E+05   5.39999939E+05   0.00000000E+00   0.00000000E+00   0.00000000E+00
   2.30000000E-02   2.10464663E+04   4.63362896E+05   4.63362896E+05   0.00000000E+00   0.00000000E+00   0.00000000E+00
   2.32000000E-02   1.80491152E+04   3.97372659E+05   3.97372659E+05   0.00000000E+00   0.00000000E+00   0.00000000E+00
   2.34000000E-02   1.54698518E+04   3.40587121E+05   3.40587121E+05   0.00000000E+00   0.00000000E+00   0.00000000E+00
   2.36000000E-02   1.32517769E+04   2.91753572E+05   2.91753572E+05   0.00000000E+00   0.00000000E+00   0.00000000E+00
   2.38000000E-02   1.13455069E+04   2.49784780E+05   2.49784780E+05   0.00000000E+00   0.00000000E+00   0.00000000E+00
   2.40000000E-02   9.70821815E+03   2.13737927E+05   2.13737927E+05   0.00000000E+00   0.00000000E+00   0.00000000E+00
   2.42000000E-02   8.30280588E+03   1.82796111E+05   1.82796111E+05   0.00000000E+00   0.00000000E+00   0.00000000E+00
   2.44000000E-02   7.09714673E+03   1.56252096E+05   1.56252096E+05   0.00000000E+00   0.00000000E+00   0.00000000E+00
   2.46000000E-02   6.06345194E+03   1.33494080E+05   1.33494080E+05   0.00000000E+00   0.00000000E+00   0.00000000E+00
   2.48000000E-02   5.17770108E+03   1.13993225E+05   1.13993225E+05   0.00000000E+00   0.00000000E+00   0.00000000E+00
   2.50000000E-02   4.41914673E+03   9.72927522E+04   9.72927522E+04   0.00000000E+00   0.00000000E+00   0.00000000E+00
   2.52000000E-02   3.76988181E+03   8.29984155E+04   8.29984155E+04   0.00000000E+00   0.00000000E+00   0.00000000E+00
   2.54000000E-02   3.21446189E+03   7.07701878E+04   7.07701878E+04   0.00000000E+00   0.00000000E+00   0.00000000E+00
   2.56000000E-02   2.73957599E+03   6.03150118E+04   6.03150118E+04   0.00000000E+00   0.00000000E+00   0.00000000E+00
   2.58000000E-02   2.33375980E+03   5.13804876E+04   5.13804876E+04   0.00000000E+00   0.00000000E+00   0.00000000E+00
   2.60000000E-02   1.98714625E+03   4.37493796E+04   4.37493796E+04   0.00000000E+00   0.00000000E+00   0.00000000E+00
   2.62000000E-02   1.69124859E+03   3.72348418E+04   3.72348418E+04   0.00000000E+00   0.00000000E+00   0.00000000E+00
   2.64000000E-02   1.43877206E+03   3.16762719E+04   3.16762719E+04   0.00000000E+00   0.00000000E+00   0.00000000E+00
   2.66000000E-02   1.22345050E+03   2.69357127E+04   2.69357127E+04   0.00000000E+00   0.00000000E+00   0.00000000E+00
   2.68000000E-02   1.03990469E+03   2.28947340E+04   2.28947340E+04   0.00000000E+00   0.00000000E+00   0.00000000E+00
   2.70000000E-02   8.83519595E+02   1.94517309E+04   1.94517309E+04   0.00000000E+00   0.00000000E+00   0.00000000E+00
   2.72000000E-02   7.50338259E+02   1.65195859E+04   1.65195859E+04   0.00000000E+00   0.00000000E+00   0.00000000E+00
   2.74000000E-02   6.36969923E+02   1.40236477E+04   1.40236477E+04   0.00000000E+00   0.00000000E+00   0.00000000E+00
   2.76000000E-02   5.40510714E+02   1.18999839E+04   1.18999839E+04   0.00000000E+00   0.00000000E+00   0.00000000E+00
   2.78000000E-02   4.58475141E+02   1.00938736E+04   1.00938736E+04   0.00000000E+00   0.00000000E+00   0.00000000E+00
   2.80000000E-02   3.88737010E+02   8.55850594E+03   8.55850594E+03   0.00000000E+00   0.00000000E+00   0.00000000E+00
   2.82000000E-02   3.29478475E+02   7.25385907E+03   7.25385907E+03   0.00000000E+00   0.00000000E+00   0.00000000E+00
   2.84000000E-02   2.79146164E+02   6.14573359E+03   6.14573359E+03   0.00000000E+00   0.00000000E+00   0.00000000E+00
   2.86000000E-02   2.36413400E+02   5.20492115E+03   5.20492115E+03   0.00000000E+00   0.00000000E+00   0.00000000E+00
   2.88000000E-02   2.00147707E+02   4.40648895E+03   4.40648895E+03   0.00000000E+00   0.00000000E+00   0.00000000E+00
   2.90000000E-02   1.69382877E+02   3.72916477E+03   3.72916477E+03   0.00000000E+00   0.00000000E+00   0.00000000E+00
   2.92000000E-02   1.43294973E+02   3.15480864E+03   3.15480864E+03   0.00000000E+00   0.00000000E+00   0.00000000E+00
   2.94000000E-02   1.21181723E+02   2.66795925E+03   2.66795925E+03   0.00000000E+00   0.00000000E+00   0.00000000E+00
   2.96000000E-02   1.02444850E+02   2.25544477E+03   2.25544477E+03   0.00000000E+00   0.00000000E+00   0.00000000E+00
   2.98000000E-02   8.65749088E+01   1.90604921E+03   1.90604921E+03   0.00000000E+00   0.00000000E+00   0.00000000E+00
   3.00000000E-02   7.31383054E+01   1.61022646E+03   1.61022646E+03   0.00000000E+00   0.00000000E+00   0.00000000E+00
   3.02000000E-02   6.17661700E+01   1.35985543E+03   1.35985543E+03   0.00000000E+00   0.00000000E+00   0.00000000E+00
   3.04000000E-02   5.21448388E+01   1.14803042E+03   1.14803042E+03   0.00000000E+00   0.00000000E+00   0.00000000E+00
   3.06000000E-02   4.40077105E+01   9.68881899E+02   9.68881899E+02   0.00000000E+00   0.00000000E+00   0.00000000E+00
   3.08000000E-02   3.71282847E+01   8.17423187E+02   8.17423187E+02   0.00000000E+00   0.00000000E+00   0.00000000E+00
   3.10000000E-02   3.13142128E+01   6.89419504E+02   6.89419504E+02   0.00000000E+00   0.00000000E+00   0.00000000E+00
   3.12000000E-02   2.64022182E+01   5.81276120E+02   5.81276120E+02   0.00000000E+00   0.00000000E+00   0.00000000E+00
   3.14000000E-02   2.22537602E+01   4.89942902E+02   4.89942902E+02   0.00000000E+00   0.00000000E+00   0.00000000E+00
   3.16000000E-02   1.87513352E+01   4.12832865E+02   4.12832865E+02   0.00000000E+00   0.00000000E+00   0.00000000E+00
   3.18000000E-02   1.57953224E+01   3.47752741E+02   3.47752741E+02   0.00000000E+00   0.00000000E+00   0.00000000E+00
   3.20000000E-02   1.33012963E+01   2.92843802E+02   2.92843802E+02   0.00000000E+00   0.00000000E+00   0.00000000E+00
   3.22000000E-02   1.11977368E+01   2.46531445E+02   2.46531445E+02   0.00000000E+00   0.00000000E+00   0.00000000E+00
   3.24000000E-02   9.42407990E+00   2.07482287E+02   2.07482287E+02   0.00000000E+00   0.00000000E+00   0.00000000E+00
   3.26000000E-02   7.92905919E+00   1.74567634E+02   1.74567634E+02   0.00000000E+00   0.00000000E+00   0.00000000E+00
   3.28000000E-02   6.66929463E+00   1.46832425E+02   1.46832425E+02   0.00000000E+00   0.00000000E+00   0.00000000E+00
