# TBinMid=1.25 ssec TBinWidth=0.1 ss EBinWidth=0.2MeV Fluence at Earth for this timebin in neutrinos per cm^2
# E(GeV)	NuE	NuMu	NuTau	aNuE	aNuMu	aNuTau
   1.38589050E-13   3.89521375E-16   2.03619037E-16   2.03619037E-16   1.72897423E-15   4.55321937E-15   4.55321937E-15
   2.00000000E-04   4.03823412E+06   3.31557513E+06   3.31557513E+06   2.04520127E+06   4.14902792E+06   4.14902792E+06
   4.00000000E-04   2.04574778E+07   1.87528817E+07   1.87528817E+07   1.07941717E+07   1.96806061E+07   1.96806061E+07
   6.00000000E-04   5.18050751E+07   5.08839368E+07   5.08839368E+07   2.84800761E+07   4.81637751E+07   4.81637751E+07
   8.00000000E-04   9.87487747E+07   1.01926844E+08   1.01926844E+08   5.63394348E+07   8.98491446E+07   8.98491446E+07
   1.00000000E-03   1.61088948E+08   1.72711487E+08   1.72711487E+08   9.50169182E+07   1.44412966E+08   1.44412966E+08
   1.20000000E-03   2.38126798E+08   2.63126274E+08   2.63126274E+08   1.44737673E+08   2.11208731E+08   2.11208731E+08
   1.40000000E-03   3.28859367E+08   3.72399033E+08   3.72399033E+08   2.05413902E+08   2.89396101E+08   2.89396101E+08
   1.60000000E-03   4.32099043E+08   4.99294087E+08   4.99294087E+08   2.76720377E+08   3.78018537E+08   3.78018537E+08
   1.80000000E-03   5.46552720E+08   6.42258004E+08   6.42258004E+08   3.58151666E+08   4.76054280E+08   4.76054280E+08
   2.00000000E-03   6.70876650E+08   7.99530372E+08   7.99530372E+08   4.49067159E+08   5.82451607E+08   5.82451607E+08
   2.20000000E-03   8.03715432E+08   9.69229163E+08   9.69229163E+08   5.48727253E+08   6.96153964E+08   6.96153964E+08
   2.40000000E-03   9.43730093E+08   1.14941685E+09   1.14941685E+09   6.56322807E+08   8.16118194E+08   8.16118194E+08
   2.60000000E-03   1.08961836E+09   1.33815157E+09   1.33815157E+09   7.70999263E+08   9.41327837E+08   9.41327837E+08
   2.80000000E-03   1.24012916E+09   1.53352640E+09   1.53352640E+09   8.91876468E+08   1.07080281E+09   1.07080281E+09
   3.00000000E-03   1.39407286E+09   1.73369919E+09   1.73369919E+09   1.01806493E+09   1.20360636E+09   1.20360636E+09
   3.20000000E-03   1.55032810E+09   1.93691474E+09   1.93691474E+09   1.14867909E+09   1.33884987E+09   1.33884987E+09
   3.40000000E-03   1.70784623E+09   2.14152076E+09   2.14152076E+09   1.28284820E+09   1.47569613E+09   1.47569613E+09
   3.60000000E-03   1.86565368E+09   2.34597883E+09   2.34597883E+09   1.41972492E+09   1.61336123E+09   1.61336123E+09
   3.80000000E-03   2.02285282E+09   2.54887134E+09   2.54887134E+09   1.55849231E+09   1.75111554E+09   1.75111554E+09
   4.00000000E-03   2.17862172E+09   2.74890508E+09   2.74890508E+09   1.69836919E+09   1.88828379E+09   1.88828379E+09
   4.20000000E-03   2.33221289E+09   2.94491230E+09   2.94491230E+09   1.83861422E+09   2.02424464E+09   2.02424464E+09
   4.40000000E-03   2.48295138E+09   3.13584961E+09   3.13584961E+09   1.97852892E+09   2.15842969E+09   2.15842969E+09
   4.60000000E-03   2.63023236E+09   3.32079530E+09   3.32079530E+09   2.11745975E+09   2.29032212E+09   2.29032212E+09
   4.80000000E-03   2.77351829E+09   3.49894533E+09   3.49894533E+09   2.25479934E+09   2.41945503E+09   2.41945503E+09
   5.00000000E-03   2.91233583E+09   3.66960845E+09   3.66960845E+09   2.38998712E+09   2.54540956E+09   2.54540956E+09
   5.20000000E-03   3.04627253E+09   3.83220053E+09   3.83220053E+09   2.52250936E+09   2.66781290E+09   2.66781290E+09
   5.40000000E-03   3.17497346E+09   3.98623847E+09   3.98623847E+09   2.65189876E+09   2.78633608E+09   2.78633608E+09
   5.60000000E-03   3.29813774E+09   4.13133374E+09   4.13133374E+09   2.77773365E+09   2.90069181E+09   2.90069181E+09
   5.80000000E-03   3.41551510E+09   4.26718581E+09   4.26718581E+09   2.89963682E+09   3.01063216E+09   3.01063216E+09
   6.00000000E-03   3.52690241E+09   4.39357544E+09   4.39357544E+09   3.01727421E+09   3.11594633E+09   3.11594633E+09
   6.20000000E-03   3.63214034E+09   4.51035813E+09   4.51035813E+09   3.13035330E+09   3.21645835E+09   3.21645835E+09
   6.40000000E-03   3.73111005E+09   4.61745757E+09   4.61745757E+09   3.23862136E+09   3.31202486E+09   3.31202486E+09
   6.60000000E-03   3.82373002E+09   4.71485935E+09   4.71485935E+09   3.34186361E+09   3.40253291E+09   3.40253291E+09
   6.80000000E-03   3.90995294E+09   4.80260481E+09   4.80260481E+09   3.43990131E+09   3.48789782E+09   3.48789782E+09
   7.00000000E-03   3.98976280E+09   4.88078524E+09   4.88078524E+09   3.53258974E+09   3.56806108E+09   3.56806108E+09
   7.20000000E-03   4.06317205E+09   4.94953629E+09   4.94953629E+09   3.61981618E+09   3.64298836E+09   3.64298836E+09
   7.40000000E-03   4.13021893E+09   5.00903271E+09   5.00903271E+09   3.70149791E+09   3.71266755E+09   3.71266755E+09
   7.60000000E-03   4.19096489E+09   5.05948339E+09   5.05948339E+09   3.77758016E+09   3.77710693E+09   3.77710693E+09
   7.80000000E-03   4.24549224E+09   5.10112673E+09   5.10112673E+09   3.84803417E+09   3.83633336E+09   3.83633336E+09
   8.00000000E-03   4.29390186E+09   5.13422627E+09   5.13422627E+09   3.91285516E+09   3.89039064E+09   3.89039064E+09
   8.20000000E-03   4.33631105E+09   5.15906672E+09   5.15906672E+09   3.97206051E+09   3.93933783E+09   3.93933783E+09
   8.40000000E-03   4.37285157E+09   5.17595023E+09   5.17595023E+09   4.02568784E+09   3.98324777E+09   3.98324777E+09
   8.60000000E-03   4.40366776E+09   5.18519296E+09   5.18519296E+09   4.07379327E+09   4.02220565E+09   4.02220565E+09
   8.80000000E-03   4.42891480E+09   5.18712198E+09   5.18712198E+09   4.11644968E+09   4.05630761E+09   4.05630761E+09
   9.00000000E-03   4.44875711E+09   5.18207239E+09   5.18207239E+09   4.15374506E+09   4.08565949E+09   4.08565949E+09
   9.20000000E-03   4.46336686E+09   5.17038475E+09   5.17038475E+09   4.18578095E+09   4.11037561E+09   4.11037561E+09
   9.40000000E-03   4.47292254E+09   5.15240274E+09   5.15240274E+09   4.21267096E+09   4.13057766E+09   4.13057766E+09
   9.60000000E-03   4.47760776E+09   5.12847107E+09   5.12847107E+09   4.23453931E+09   4.14639365E+09   4.14639365E+09
   9.80000000E-03   4.47761001E+09   5.09893355E+09   5.09893355E+09   4.25151951E+09   4.15795690E+09   4.15795690E+09
   1.00000000E-02   4.47311962E+09   5.06413149E+09   5.06413149E+09   4.26375312E+09   4.16540519E+09   4.16540519E+09
   1.02000000E-02   4.46432879E+09   5.02440219E+09   5.02440219E+09   4.27138854E+09   4.16887985E+09   4.16887985E+09
   1.04000000E-02   4.45143064E+09   4.98007762E+09   4.98007762E+09   4.27457990E+09   4.16852501E+09   4.16852501E+09
   1.06000000E-02   4.43461848E+09   4.93148336E+09   4.93148336E+09   4.27348603E+09   4.16448690E+09   4.16448690E+09
   1.08000000E-02   4.41408501E+09   4.87893758E+09   4.87893758E+09   4.26826949E+09   4.15691312E+09   4.15691312E+09
   1.10000000E-02   4.39002168E+09   4.82275023E+09   4.82275023E+09   4.25909567E+09   4.14595211E+09   4.14595211E+09
   1.12000000E-02   4.36261809E+09   4.76322236E+09   4.76322236E+09   4.24613198E+09   4.13175253E+09   4.13175253E+09
   1.14000000E-02   4.33206148E+09   4.70064555E+09   4.70064555E+09   4.22954706E+09   4.11446278E+09   4.11446278E+09
   1.16000000E-02   4.29853626E+09   4.63530142E+09   4.63530142E+09   4.20951010E+09   4.09423054E+09   4.09423054E+09
   1.18000000E-02   4.26222356E+09   4.56746131E+09   4.56746131E+09   4.18619020E+09   4.07120233E+09   4.07120233E+09
   1.20000000E-02   4.22330090E+09   4.49738599E+09   4.49738599E+09   4.15975573E+09   4.04552315E+09   4.04552315E+09
   1.22000000E-02   4.18194186E+09   4.42532547E+09   4.42532547E+09   4.13037389E+09   4.01733615E+09   4.01733615E+09
   1.24000000E-02   4.13831585E+09   4.35151890E+09   4.35151890E+09   4.09821014E+09   3.98678230E+09   3.98678230E+09
   1.26000000E-02   4.09258781E+09   4.27619452E+09   4.27619452E+09   4.06342782E+09   3.95400012E+09   3.95400012E+09
   1.28000000E-02   4.04491806E+09   4.19956967E+09   4.19956967E+09   4.02618774E+09   3.91912548E+09   3.91912548E+09
   1.30000000E-02   3.99546216E+09   4.12185086E+09   4.12185086E+09   3.98664785E+09   3.88229138E+09   3.88229138E+09
   1.32000000E-02   3.94437074E+09   4.04323386E+09   4.04323386E+09   3.94496293E+09   3.84362772E+09   3.84362772E+09
   1.34000000E-02   3.89178946E+09   3.96390388E+09   3.96390388E+09   3.90128431E+09   3.80326123E+09   3.80326123E+09
   1.36000000E-02   3.83785887E+09   3.88403573E+09   3.88403573E+09   3.85575967E+09   3.76131526E+09   3.76131526E+09
   1.38000000E-02   3.78271444E+09   3.80379405E+09   3.80379405E+09   3.80853279E+09   3.71790973E+09   3.71790973E+09
   1.40000000E-02   3.72648648E+09   3.72333354E+09   3.72333354E+09   3.75974346E+09   3.67316101E+09   3.67316101E+09
   1.42000000E-02   3.66930018E+09   3.64279925E+09   3.64279925E+09   3.70952727E+09   3.62718188E+09   3.62718188E+09
   1.44000000E-02   3.61127559E+09   3.56232679E+09   3.56232679E+09   3.65801553E+09   3.58008143E+09   3.58008143E+09
   1.46000000E-02   3.55252767E+09   3.48204272E+09   3.48204272E+09   3.60533518E+09   3.53196508E+09   3.53196508E+09
   1.48000000E-02   3.49316635E+09   3.40206478E+09   3.40206478E+09   3.55160874E+09   3.48293451E+09   3.48293451E+09
   1.50000000E-02   3.43329655E+09   3.32250222E+09   3.32250222E+09   3.49695423E+09   3.43308771E+09   3.43308771E+09
   1.52000000E-02   3.37301829E+09   3.24345615E+09   3.24345615E+09   3.44148517E+09   3.38251890E+09   3.38251890E+09
   1.54000000E-02   3.31242676E+09   3.16501982E+09   3.16501982E+09   3.38531057E+09   3.33131865E+09   3.33131865E+09
   1.56000000E-02   3.25161240E+09   3.08727898E+09   3.08727898E+09   3.32853494E+09   3.27957381E+09   3.27957381E+09
   1.58000000E-02   3.19066099E+09   3.01031219E+09   3.01031219E+09   3.27125831E+09   3.22736761E+09   3.22736761E+09
   1.60000000E-02   3.12965379E+09   2.93419112E+09   2.93419112E+09   3.21357625E+09   3.17477966E+09   3.17477966E+09
   1.62000000E-02   3.06866763E+09   2.85898093E+09   2.85898093E+09   3.15557994E+09   3.12188603E+09   3.12188603E+09
   1.64000000E-02   3.00777498E+09   2.78474051E+09   2.78474051E+09   3.09735623E+09   3.06875928E+09   3.06875928E+09
   1.66000000E-02   2.94704416E+09   2.71152288E+09   2.71152288E+09   3.03898767E+09   3.01546856E+09   3.01546856E+09
   1.68000000E-02   2.88653939E+09   2.63937539E+09   2.63937539E+09   2.98055262E+09   2.96207962E+09   2.96207962E+09
   1.70000000E-02   2.82632093E+09   2.56834013E+09   2.56834013E+09   2.92212534E+09   2.90865494E+09   2.90865494E+09
   1.72000000E-02   2.76644522E+09   2.49845412E+09   2.49845412E+09   2.86377604E+09   2.85525375E+09   2.85525375E+09
   1.74000000E-02   2.70696500E+09   2.42974967E+09   2.42974967E+09   2.80557100E+09   2.80193216E+09   2.80193216E+09
   1.76000000E-02   2.64792941E+09   2.36225461E+09   2.36225461E+09   2.74757266E+09   2.74874320E+09   2.74874320E+09
   1.78000000E-02   2.58938418E+09   2.29599257E+09   2.29599257E+09   2.68983974E+09   2.69573692E+09   2.69573692E+09
   1.80000000E-02   2.53137168E+09   2.23098324E+09   2.23098324E+09   2.63242731E+09   2.64296047E+09   2.64296047E+09
   1.82000000E-02   2.47393113E+09   2.16724261E+09   2.16724261E+09   2.57538693E+09   2.59045819E+09   2.59045819E+09
   1.84000000E-02   2.41709863E+09   2.10478322E+09   2.10478322E+09   2.51876675E+09   2.53827169E+09   2.53827169E+09
   1.86000000E-02   2.36090738E+09   2.04361438E+09   2.04361438E+09   2.46261163E+09   2.48643995E+09   2.48643995E+09
   1.88000000E-02   2.30538772E+09   1.98374238E+09   1.98374238E+09   2.40696321E+09   2.43499938E+09   2.43499938E+09
   1.90000000E-02   2.25056732E+09   1.92517074E+09   1.92517074E+09   2.35186008E+09   2.38398394E+09   2.38398394E+09
   1.92000000E-02   2.19647124E+09   1.86790037E+09   1.86790037E+09   2.29733786E+09   2.33342519E+09   2.33342519E+09
   1.94000000E-02   2.14312208E+09   1.81192976E+09   1.81192976E+09   2.24342934E+09   2.28335242E+09   2.28335242E+09
   1.96000000E-02   2.09054009E+09   1.75725521E+09   1.75725521E+09   2.19016453E+09   2.23379271E+09   2.23379271E+09
   1.98000000E-02   2.03874328E+09   1.70387096E+09   1.70387096E+09   2.13757084E+09   2.18477099E+09   2.18477099E+09
   2.00000000E-02   1.98774751E+09   1.65176937E+09   1.65176937E+09   2.08567317E+09   2.13631019E+09   2.13631019E+09
   2.02000000E-02   1.93756663E+09   1.60094109E+09   1.60094109E+09   2.03449399E+09   2.08843126E+09   2.08843126E+09
   2.04000000E-02   1.88821254E+09   1.55137519E+09   1.55137519E+09   1.98405348E+09   2.04115329E+09   2.04115329E+09
   2.06000000E-02   1.83969534E+09   1.50305931E+09   1.50305931E+09   1.93436960E+09   1.99449355E+09   1.99449355E+09
   2.08000000E-02   1.79202338E+09   1.45597978E+09   1.45597978E+09   1.88545825E+09   1.94846762E+09   1.94846762E+09
   2.10000000E-02   1.74520338E+09   1.41012180E+09   1.41012180E+09   1.83733329E+09   1.90308943E+09   1.90308943E+09
   2.12000000E-02   1.69924051E+09   1.36546947E+09   1.36546947E+09   1.79000672E+09   1.85837134E+09   1.85837134E+09
   2.14000000E-02   1.65413850E+09   1.32200598E+09   1.32200598E+09   1.74348872E+09   1.81432422E+09   1.81432422E+09
   2.16000000E-02   1.60989969E+09   1.27971368E+09   1.27971368E+09   1.69778775E+09   1.77095752E+09   1.77095752E+09
   2.18000000E-02   1.56652514E+09   1.23857419E+09   1.23857419E+09   1.65291068E+09   1.72827934E+09   1.72827934E+09
   2.20000000E-02   1.52401469E+09   1.19856847E+09   1.19856847E+09   1.60886282E+09   1.68629649E+09   1.68629649E+09
   2.22000000E-02   1.48236705E+09   1.15967694E+09   1.15967694E+09   1.56564805E+09   1.64501455E+09   1.64501455E+09
   2.24000000E-02   1.44157987E+09   1.12187955E+09   1.12187955E+09   1.52326889E+09   1.60443798E+09   1.60443798E+09
   2.26000000E-02   1.40164980E+09   1.08515584E+09   1.08515584E+09   1.48172657E+09   1.56457011E+09   1.56457011E+09
   2.28000000E-02   1.36257257E+09   1.04948503E+09   1.04948503E+09   1.44102111E+09   1.52541325E+09   1.52541325E+09
   2.30000000E-02   1.32434306E+09   1.01484607E+09   1.01484607E+09   1.40115141E+09   1.48696873E+09   1.48696873E+09
   2.32000000E-02   1.28695533E+09   9.81217712E+08   9.81217712E+08   1.36211531E+09   1.44923696E+09   1.44923696E+09
   2.34000000E-02   1.25040271E+09   9.48578575E+08   9.48578575E+08   1.32390965E+09   1.41221749E+09   1.41221749E+09
   2.36000000E-02   1.21467786E+09   9.16907172E+08   9.16907172E+08   1.28653035E+09   1.37590905E+09   1.37590905E+09
   2.38000000E-02   1.17977280E+09   8.86181980E+08   8.86181980E+08   1.24997248E+09   1.34030960E+09   1.34030960E+09
   2.40000000E-02   1.14567896E+09   8.56381474E+08   8.56381474E+08   1.21423030E+09   1.30541638E+09   1.30541638E+09
   2.42000000E-02   1.11238727E+09   8.27484172E+08   8.27484172E+08   1.17929734E+09   1.27122598E+09   1.27122598E+09
   2.44000000E-02   1.07988816E+09   7.99468673E+08   7.99468673E+08   1.14516644E+09   1.23773434E+09   1.23773434E+09
   2.46000000E-02   1.04817162E+09   7.72313690E+08   7.72313690E+08   1.11182982E+09   1.20493683E+09   1.20493683E+09
   2.48000000E-02   1.01722727E+09   7.45998081E+08   7.45998081E+08   1.07927911E+09   1.17282828E+09   1.17282828E+09
   2.50000000E-02   9.87044347E+08   7.20500878E+08   7.20500878E+08   1.04750543E+09   1.14140300E+09   1.14140300E+09
   2.52000000E-02   9.57611794E+08   6.95801313E+08   6.95801313E+08   1.01649939E+09   1.11065485E+09   1.11065485E+09
   2.54000000E-02   9.28918264E+08   6.71878844E+08   6.71878844E+08   9.86251186E+08   1.08057725E+09   1.08057725E+09
   2.56000000E-02   9.00952166E+08   6.48713170E+08   6.48713170E+08   9.56750619E+08   1.05116325E+09   1.05116325E+09
   2.58000000E-02   8.73701697E+08   6.26284255E+08   6.26284255E+08   9.27987126E+08   1.02240551E+09   1.02240551E+09
   2.60000000E-02   8.47154871E+08   6.04572344E+08   6.04572344E+08   8.99949834E+08   9.94296361E+08   9.94296361E+08
   2.62000000E-02   8.21299550E+08   5.83557974E+08   5.83557974E+08   8.72627587E+08   9.66827850E+08   9.66827850E+08
   2.64000000E-02   7.96123467E+08   5.63221993E+08   5.63221993E+08   8.46008988E+08   9.39991742E+08   9.39991742E+08
   2.66000000E-02   7.71614257E+08   5.43545566E+08   5.43545566E+08   8.20082424E+08   9.13779555E+08   9.13779555E+08
   2.68000000E-02   7.47759476E+08   5.24510186E+08   5.24510186E+08   7.94836103E+08   8.88182593E+08   8.88182593E+08
   2.70000000E-02   7.24546627E+08   5.06097686E+08   5.06097686E+08   7.70258078E+08   8.63191963E+08   8.63191963E+08
   2.72000000E-02   7.01963179E+08   4.88290241E+08   4.88290241E+08   7.46336278E+08   8.38798599E+08   8.38798599E+08
   2.74000000E-02   6.79996589E+08   4.71070376E+08   4.71070376E+08   7.23058533E+08   8.14993287E+08   8.14993287E+08
   2.76000000E-02   6.58634318E+08   4.54420969E+08   4.54420969E+08   7.00412596E+08   7.91766686E+08   7.91766686E+08
   2.78000000E-02   6.37863851E+08   4.38325256E+08   4.38325256E+08   6.78386169E+08   7.69109343E+08   7.69109343E+08
   2.80000000E-02   6.17672710E+08   4.22766835E+08   4.22766835E+08   6.56966921E+08   7.47011717E+08   7.47011717E+08
   2.82000000E-02   5.98048471E+08   4.07729662E+08   4.07729662E+08   6.36142511E+08   7.25464194E+08   7.25464194E+08
   2.84000000E-02   5.78978778E+08   3.93198056E+08   3.93198056E+08   6.15900606E+08   7.04457105E+08   7.04457105E+08
   2.86000000E-02   5.60451356E+08   3.79156699E+08   3.79156699E+08   5.96228896E+08   6.83980739E+08   6.83980739E+08
   2.88000000E-02   5.42454020E+08   3.65590632E+08   3.65590632E+08   5.77115112E+08   6.64025361E+08   6.64025361E+08
   2.90000000E-02   5.24974690E+08   3.52485257E+08   3.52485257E+08   5.58547042E+08   6.44581224E+08   6.44581224E+08
   2.92000000E-02   5.08001398E+08   3.39826332E+08   3.39826332E+08   5.40512544E+08   6.25638583E+08   6.25638583E+08
   2.94000000E-02   4.91522299E+08   3.27599971E+08   3.27599971E+08   5.22999556E+08   6.07187705E+08   6.07187705E+08
   2.96000000E-02   4.75525677E+08   3.15792638E+08   3.15792638E+08   5.05996114E+08   5.89218883E+08   5.89218883E+08
   2.98000000E-02   4.59999958E+08   3.04391145E+08   3.04391145E+08   4.89490359E+08   5.71722446E+08   5.71722446E+08
   3.00000000E-02   4.44933709E+08   2.93382651E+08   2.93382651E+08   4.73470544E+08   5.54688768E+08   5.54688768E+08
   3.02000000E-02   4.30315652E+08   2.82754650E+08   2.82754650E+08   4.57925052E+08   5.38108277E+08   5.38108277E+08
   3.04000000E-02   4.16134663E+08   2.72494975E+08   2.72494975E+08   4.42842395E+08   5.21971465E+08   5.21971465E+08
   3.06000000E-02   4.02379782E+08   2.62591788E+08   2.62591788E+08   4.28211228E+08   5.06268895E+08   5.06268895E+08
   3.08000000E-02   3.89040216E+08   2.53033576E+08   2.53033576E+08   4.14020352E+08   4.90991207E+08   4.90991207E+08
   3.10000000E-02   3.76105340E+08   2.43809145E+08   2.43809145E+08   4.00258723E+08   4.76129130E+08   4.76129130E+08
   3.12000000E-02   3.63564704E+08   2.34907616E+08   2.34907616E+08   3.86915457E+08   4.61673480E+08   4.61673480E+08
   3.14000000E-02   3.51408035E+08   2.26318419E+08   2.26318419E+08   3.73979831E+08   4.47615173E+08   4.47615173E+08
   3.16000000E-02   3.39625237E+08   2.18031287E+08   2.18031287E+08   3.61441292E+08   4.33945226E+08   4.33945226E+08
   3.18000000E-02   3.28206397E+08   2.10036248E+08   2.10036248E+08   3.49289462E+08   4.20654764E+08   4.20654764E+08
   3.20000000E-02   3.17141784E+08   2.02323623E+08   2.02323623E+08   3.37514133E+08   4.07735021E+08   4.07735021E+08
   3.22000000E-02   3.06421848E+08   1.94884018E+08   1.94884018E+08   3.26105279E+08   3.95177349E+08   3.95177349E+08
   3.24000000E-02   2.96037227E+08   1.87708314E+08   1.87708314E+08   3.15053053E+08   3.82973217E+08   3.82973217E+08
   3.26000000E-02   2.85978743E+08   1.80787670E+08   1.80787670E+08   3.04347791E+08   3.71114216E+08   3.71114216E+08
   3.28000000E-02   2.76237401E+08   1.74113507E+08   1.74113507E+08   2.93980011E+08   3.59592062E+08   3.59592062E+08
