# TBinMid=0.85 ssec TBinWidth=0.1 ss EBinWidth=0.2MeV Fluence at Earth for this timebin in neutrinos per cm^2
# E(GeV)	NuE	NuMu	NuTau	aNuE	aNuMu	aNuTau
   1.38589050E-13   5.42450208E-16   2.83571036E-16   2.83571036E-16   1.77057883E-16   4.66248595E-16   4.66248595E-16
   2.00000000E-04   4.06819213E+06   3.53347226E+06   3.53347226E+06   2.07209498E+06   3.61986991E+06   3.61986991E+06
   4.00000000E-04   2.04853972E+07   1.99531366E+07   1.99531366E+07   1.16713560E+07   1.84391413E+07   1.84391413E+07
   6.00000000E-04   5.17820428E+07   5.41207611E+07   5.41207611E+07   3.17417135E+07   4.70002165E+07   4.70002165E+07
   8.00000000E-04   9.86951142E+07   1.08435167E+08   1.08435167E+08   6.39114721E+07   9.01884268E+07   9.01884268E+07
   1.00000000E-03   1.61135236E+08   1.83850313E+08   1.83850313E+08   1.09036489E+08   1.48097911E+08   1.48097911E+08
   1.20000000E-03   2.38532613E+08   2.80340157E+08   2.80340157E+08   1.67435622E+08   2.20347327E+08   2.20347327E+08
   1.40000000E-03   3.30018900E+08   3.97188357E+08   3.97188357E+08   2.39034029E+08   3.06248756E+08   3.06248756E+08
   1.60000000E-03   4.34538424E+08   5.33190419E+08   5.33190419E+08   3.23462522E+08   4.04912832E+08   4.04912832E+08
   1.80000000E-03   5.50921999E+08   6.86802798E+08   6.86802798E+08   4.20131279E+08   5.15319785E+08   5.15319785E+08
   2.00000000E-03   6.77938354E+08   8.56256174E+08   8.56256174E+08   5.28286721E+08   6.36369898E+08   6.36369898E+08
   2.20000000E-03   8.14331043E+08   1.03964288E+09   1.03964288E+09   6.47056448E+08   7.66920452E+08   7.66920452E+08
   2.40000000E-03   9.58845370E+08   1.23498486E+09   1.23498486E+09   7.75485280E+08   9.05813300E+08   9.05813300E+08
   2.60000000E-03   1.11024819E+09   1.44028650E+09   1.44028650E+09   9.12564382E+08   1.05189565E+09   1.05189565E+09
   2.80000000E-03   1.26734245E+09   1.65357553E+09   1.65357553E+09   1.05725493E+09   1.20403576E+09   1.20403576E+09
   3.00000000E-03   1.42897776E+09   1.87293442E+09   1.87293442E+09   1.20850733E+09   1.36113481E+09   1.36113481E+09
   3.20000000E-03   1.59405789E+09   2.09652405E+09   2.09652405E+09   1.36527679E+09   1.52213570E+09   1.52213570E+09
   3.40000000E-03   1.76154602E+09   2.32260105E+09   2.32260105E+09   1.52653589E+09   1.68602955E+09   1.68602955E+09
   3.60000000E-03   1.93046797E+09   2.54953023E+09   2.54953023E+09   1.69128463E+09   1.85186021E+09   1.85186021E+09
   3.80000000E-03   2.09991418E+09   2.77579269E+09   2.77579269E+09   1.85855835E+09   2.01872740E+09   2.01872740E+09
   4.00000000E-03   2.26904037E+09   2.99999075E+09   2.99999075E+09   2.02743386E+09   2.18578852E+09   2.18578852E+09
   4.20000000E-03   2.43706743E+09   3.22085005E+09   3.22085005E+09   2.19703414E+09   2.35225954E+09   2.35225954E+09
   4.40000000E-03   2.60328052E+09   3.43721956E+09   3.43721956E+09   2.36653166E+09   2.51741512E+09   2.51741512E+09
   4.60000000E-03   2.76702769E+09   3.64806984E+09   3.64806984E+09   2.53515075E+09   2.68058805E+09   2.68058805E+09
   4.80000000E-03   2.92771804E+09   3.85248991E+09   3.85248991E+09   2.70216897E+09   2.84116827E+09   2.84116827E+09
   5.00000000E-03   3.08481955E+09   4.04968314E+09   4.04968314E+09   2.86691780E+09   2.99860142E+09   2.99860142E+09
   5.20000000E-03   3.23785670E+09   4.23896230E+09   4.23896230E+09   3.02878267E+09   3.15238709E+09   3.15238709E+09
   5.40000000E-03   3.38640793E+09   4.41974406E+09   4.41974406E+09   3.18720246E+09   3.30207690E+09   3.30207690E+09
   5.60000000E-03   3.53010293E+09   4.59154309E+09   4.59154309E+09   3.34166858E+09   3.44727235E+09   3.44727235E+09
   5.80000000E-03   3.66861996E+09   4.75396589E+09   4.75396589E+09   3.49172374E+09   3.58762253E+09   3.58762253E+09
   6.00000000E-03   3.80168308E+09   4.90670457E+09   4.90670457E+09   3.63696034E+09   3.72282181E+09   3.72282181E+09
   6.20000000E-03   3.92905935E+09   5.04953045E+09   5.04953045E+09   3.77701873E+09   3.85260740E+09   3.85260740E+09
   6.40000000E-03   4.05055616E+09   5.18228789E+09   5.18228789E+09   3.91158525E+09   3.97675697E+09   3.97675697E+09
   6.60000000E-03   4.16601849E+09   5.30488812E+09   5.30488812E+09   4.04039015E+09   4.09508620E+09   4.09508620E+09
   6.80000000E-03   4.27532635E+09   5.41730323E+09   5.41730323E+09   4.16320543E+09   4.20744645E+09   4.20744645E+09
   7.00000000E-03   4.37839219E+09   5.51956048E+09   5.51956048E+09   4.27984261E+09   4.31372231E+09   4.31372231E+09
   7.20000000E-03   4.47515847E+09   5.61173670E+09   5.61173670E+09   4.39015045E+09   4.41382938E+09   4.41382938E+09
   7.40000000E-03   4.56559526E+09   5.69395304E+09   5.69395304E+09   4.49401269E+09   4.50771202E+09   4.50771202E+09
   7.60000000E-03   4.64969800E+09   5.76636999E+09   5.76636999E+09   4.59134581E+09   4.59534114E+09   4.59534114E+09
   7.80000000E-03   4.72748532E+09   5.82918262E+09   5.82918262E+09   4.68209675E+09   4.67671214E+09   4.67671214E+09
   8.00000000E-03   4.79899696E+09   5.88261620E+09   5.88261620E+09   4.76624076E+09   4.75184289E+09   4.75184289E+09
   8.20000000E-03   4.86429183E+09   5.92692200E+09   5.92692200E+09   4.84377924E+09   4.82077181E+09   4.82077181E+09
   8.40000000E-03   4.92344610E+09   5.96237348E+09   5.96237348E+09   4.91473766E+09   4.88355600E+09   4.88355600E+09
   8.60000000E-03   4.97655149E+09   5.98926266E+09   5.98926266E+09   4.97916353E+09   4.94026953E+09   4.94026953E+09
   8.80000000E-03   5.02371360E+09   6.00789685E+09   6.00789685E+09   5.03712449E+09   4.99100174E+09   4.99100174E+09
   9.00000000E-03   5.06505032E+09   6.01859562E+09   6.01859562E+09   5.08870643E+09   5.03585569E+09   5.03585569E+09
   9.20000000E-03   5.10069038E+09   6.02168794E+09   6.02168794E+09   5.13401173E+09   5.07494663E+09   5.07494663E+09
   9.40000000E-03   5.13077200E+09   6.01750973E+09   6.01750973E+09   5.17315751E+09   5.10840064E+09   5.10840064E+09
   9.60000000E-03   5.15544156E+09   6.00640147E+09   6.00640147E+09   5.20627408E+09   5.13635325E+09   5.13635325E+09
   9.80000000E-03   5.17485247E+09   5.98870614E+09   5.98870614E+09   5.23350339E+09   5.15894829E+09   5.15894829E+09
   1.00000000E-02   5.18916397E+09   5.96476735E+09   5.96476735E+09   5.25499755E+09   5.17633661E+09   5.17633661E+09
   1.02000000E-02   5.19854020E+09   5.93492761E+09   5.93492761E+09   5.27091752E+09   5.18867510E+09   5.18867510E+09
   1.04000000E-02   5.20314916E+09   5.89952686E+09   5.89952686E+09   5.28143180E+09   5.19612561E+09   5.19612561E+09
   1.06000000E-02   5.20316186E+09   5.85890112E+09   5.85890112E+09   5.28671527E+09   5.19885406E+09   5.19885406E+09
   1.08000000E-02   5.19875151E+09   5.81338133E+09   5.81338133E+09   5.28694800E+09   5.19702952E+09   5.19702952E+09
   1.10000000E-02   5.19009278E+09   5.76329233E+09   5.76329233E+09   5.28231428E+09   5.19082343E+09   5.19082343E+09
   1.12000000E-02   5.17736108E+09   5.70895192E+09   5.70895192E+09   5.27300162E+09   5.18040887E+09   5.18040887E+09
   1.14000000E-02   5.16073198E+09   5.65067020E+09   5.65067020E+09   5.25919984E+09   5.16595982E+09   5.16595982E+09
   1.16000000E-02   5.14038060E+09   5.58874885E+09   5.58874885E+09   5.24110026E+09   5.14765061E+09   5.14765061E+09
   1.18000000E-02   5.11648111E+09   5.52348061E+09   5.52348061E+09   5.21889494E+09   5.12565527E+09   5.12565527E+09
   1.20000000E-02   5.08920626E+09   5.45514888E+09   5.45514888E+09   5.19277597E+09   5.10014705E+09   5.10014705E+09
   1.22000000E-02   5.05872696E+09   5.38402734E+09   5.38402734E+09   5.16293482E+09   5.07129795E+09   5.07129795E+09
   1.24000000E-02   5.02521191E+09   5.31037972E+09   5.31037972E+09   5.12956177E+09   5.03927824E+09   5.03927824E+09
   1.26000000E-02   4.98882722E+09   5.23445956E+09   5.23445956E+09   5.09284538E+09   5.00425613E+09   5.00425613E+09
   1.28000000E-02   4.94973617E+09   5.15651014E+09   5.15651014E+09   5.05297202E+09   4.96639740E+09   4.96639740E+09
   1.30000000E-02   4.90809892E+09   5.07676440E+09   5.07676440E+09   5.01012542E+09   4.92586505E+09   4.92586505E+09
   1.32000000E-02   4.86407225E+09   4.99544493E+09   4.99544493E+09   4.96448629E+09   4.88281911E+09   4.88281911E+09
   1.34000000E-02   4.81780942E+09   4.91276399E+09   4.91276399E+09   4.91623201E+09   4.83741631E+09   4.83741631E+09
   1.36000000E-02   4.76945996E+09   4.82892364E+09   4.82892364E+09   4.86553628E+09   4.78980995E+09   4.78980995E+09
   1.38000000E-02   4.71916951E+09   4.74411582E+09   4.74411582E+09   4.81256890E+09   4.74014964E+09   4.74014964E+09
   1.40000000E-02   4.66707974E+09   4.65852249E+09   4.65852249E+09   4.75749552E+09   4.68858121E+09   4.68858121E+09
   1.42000000E-02   4.61332824E+09   4.57231586E+09   4.57231586E+09   4.70047746E+09   4.63524654E+09   4.63524654E+09
   1.44000000E-02   4.55804843E+09   4.48565857E+09   4.48565857E+09   4.64167153E+09   4.58028347E+09   4.58028347E+09
   1.46000000E-02   4.50136952E+09   4.39870390E+09   4.39870390E+09   4.58122993E+09   4.52382571E+09   4.52382571E+09
   1.48000000E-02   4.44341646E+09   4.31159601E+09   4.31159601E+09   4.51930008E+09   4.46600279E+09   4.46600279E+09
   1.50000000E-02   4.38430990E+09   4.22447026E+09   4.22447026E+09   4.45602460E+09   4.40693999E+09   4.40693999E+09
   1.52000000E-02   4.32416624E+09   4.13745337E+09   4.13745337E+09   4.39154121E+09   4.34675829E+09   4.34675829E+09
   1.54000000E-02   4.26309757E+09   4.05066382E+09   4.05066382E+09   4.32598272E+09   4.28557443E+09   4.28557443E+09
   1.56000000E-02   4.20121171E+09   3.96421203E+09   3.96421203E+09   4.25947698E+09   4.22350082E+09   4.22350082E+09
   1.58000000E-02   4.13861226E+09   3.87820072E+09   3.87820072E+09   4.19214689E+09   4.16064562E+09   4.16064562E+09
   1.60000000E-02   4.07539860E+09   3.79272516E+09   3.79272516E+09   4.12411041E+09   4.09711272E+09   4.09711272E+09
   1.62000000E-02   4.01166597E+09   3.70787349E+09   3.70787349E+09   4.05548059E+09   4.03300178E+09   4.03300178E+09
   1.64000000E-02   3.94750552E+09   3.62372701E+09   3.62372701E+09   3.98636560E+09   3.96840830E+09   3.96840830E+09
   1.66000000E-02   3.88300434E+09   3.54036045E+09   3.54036045E+09   3.91686880E+09   3.90342364E+09   3.90342364E+09
   1.68000000E-02   3.81824558E+09   3.45784230E+09   3.45784230E+09   3.84708878E+09   3.83813510E+09   3.83813510E+09
   1.70000000E-02   3.75330847E+09   3.37623505E+09   3.37623505E+09   3.77711945E+09   3.77262595E+09   3.77262595E+09
   1.72000000E-02   3.68826844E+09   3.29559550E+09   3.29559550E+09   3.70705012E+09   3.70697557E+09   3.70697557E+09
   1.74000000E-02   3.62319719E+09   3.21597506E+09   3.21597506E+09   3.63696555E+09   3.64125945E+09   3.64125945E+09
   1.76000000E-02   3.55816278E+09   3.13741996E+09   3.13741996E+09   3.56694610E+09   3.57554932E+09   3.57554932E+09
   1.78000000E-02   3.49322969E+09   3.05997157E+09   3.05997157E+09   3.49706780E+09   3.50991323E+09   3.50991323E+09
   1.80000000E-02   3.42845897E+09   2.98366662E+09   2.98366662E+09   3.42740245E+09   3.44441561E+09   3.44441561E+09
   1.82000000E-02   3.36390826E+09   2.90853748E+09   2.90853748E+09   3.35801772E+09   3.37911739E+09   3.37911739E+09
   1.84000000E-02   3.29963197E+09   2.83461239E+09   2.83461239E+09   3.28897731E+09   3.31407610E+09   3.31407610E+09
   1.86000000E-02   3.23568129E+09   2.76191570E+09   2.76191570E+09   3.22034099E+09   3.24934593E+09   3.24934593E+09
   1.88000000E-02   3.17210435E+09   2.69046808E+09   2.69046808E+09   3.15216480E+09   3.18497785E+09   3.18497785E+09
   1.90000000E-02   3.10894629E+09   2.62028676E+09   2.62028676E+09   3.08450107E+09   3.12101971E+09   3.12101971E+09
   1.92000000E-02   3.04624937E+09   2.55138575E+09   2.55138575E+09   3.01739864E+09   3.05751635E+09   3.05751635E+09
   1.94000000E-02   2.98405306E+09   2.48377602E+09   2.48377602E+09   2.95090291E+09   2.99450965E+09   2.99450965E+09
   1.96000000E-02   2.92239413E+09   2.41746569E+09   2.41746569E+09   2.88505597E+09   2.93203867E+09   2.93203867E+09
   1.98000000E-02   2.86130674E+09   2.35246026E+09   2.35246026E+09   2.81989675E+09   2.87013976E+09   2.87013976E+09
   2.00000000E-02   2.80082259E+09   2.28876276E+09   2.28876276E+09   2.75546112E+09   2.80884661E+09   2.80884661E+09
   2.02000000E-02   2.74097094E+09   2.22637390E+09   2.22637390E+09   2.69178198E+09   2.74819038E+09   2.74819038E+09
   2.04000000E-02   2.68177873E+09   2.16529228E+09   2.16529228E+09   2.62888942E+09   2.68819980E+09   2.68819980E+09
   2.06000000E-02   2.62327072E+09   2.10551453E+09   2.10551453E+09   2.56681083E+09   2.62890125E+09   2.62890125E+09
   2.08000000E-02   2.56546949E+09   2.04703544E+09   2.04703544E+09   2.50557098E+09   2.57031884E+09   2.57031884E+09
   2.10000000E-02   2.50839560E+09   1.98984812E+09   1.98984812E+09   2.44519217E+09   2.51247455E+09   2.51247455E+09
   2.12000000E-02   2.45206765E+09   1.93394413E+09   1.93394413E+09   2.38569432E+09   2.45538826E+09   2.45538826E+09
   2.14000000E-02   2.39650238E+09   1.87931363E+09   1.87931363E+09   2.32709507E+09   2.39907789E+09   2.39907789E+09
   2.16000000E-02   2.34171470E+09   1.82594545E+09   1.82594545E+09   2.26940991E+09   2.34355946E+09   2.34355946E+09
   2.18000000E-02   2.28771787E+09   1.77382726E+09   1.77382726E+09   2.21265226E+09   2.28884716E+09   2.28884716E+09
   2.20000000E-02   2.23452346E+09   1.72294564E+09   1.72294564E+09   2.15683361E+09   2.23495348E+09   2.23495348E+09
   2.22000000E-02   2.18214154E+09   1.67328621E+09   1.67328621E+09   2.10196354E+09   2.18188926E+09   2.18188926E+09
   2.24000000E-02   2.13058067E+09   1.62483371E+09   1.62483371E+09   2.04804991E+09   2.12966375E+09   2.12966375E+09
   2.26000000E-02   2.07984801E+09   1.57757209E+09   1.57757209E+09   1.99509887E+09   2.07828475E+09   2.07828475E+09
   2.28000000E-02   2.02994940E+09   1.53148462E+09   1.53148462E+09   1.94311503E+09   2.02775860E+09   2.02775860E+09
   2.30000000E-02   1.98088941E+09   1.48655392E+09   1.48655392E+09   1.89210146E+09   1.97809034E+09   1.97809034E+09
   2.32000000E-02   1.93267139E+09   1.44276210E+09   1.44276210E+09   1.84205984E+09   1.92928369E+09   1.92928369E+09
   2.34000000E-02   1.88529758E+09   1.40009078E+09   1.40009078E+09   1.79299053E+09   1.88134121E+09   1.88134121E+09
   2.36000000E-02   1.83876915E+09   1.35852120E+09   1.35852120E+09   1.74489263E+09   1.83426431E+09   1.83426431E+09
   2.38000000E-02   1.79308623E+09   1.31803424E+09   1.31803424E+09   1.69776407E+09   1.78805329E+09   1.78805329E+09
   2.40000000E-02   1.74824803E+09   1.27861050E+09   1.27861050E+09   1.65160166E+09   1.74270750E+09   1.74270750E+09
   2.42000000E-02   1.70425283E+09   1.24023035E+09   1.24023035E+09   1.60640121E+09   1.69822527E+09   1.69822527E+09
   2.44000000E-02   1.66109808E+09   1.20287400E+09   1.20287400E+09   1.56215757E+09   1.65460409E+09   1.65460409E+09
   2.46000000E-02   1.61878046E+09   1.16652150E+09   1.16652150E+09   1.51886466E+09   1.61184059E+09   1.61184059E+09
   2.48000000E-02   1.57729586E+09   1.13115283E+09   1.13115283E+09   1.47651560E+09   1.56993059E+09   1.56993059E+09
   2.50000000E-02   1.53663953E+09   1.09674793E+09   1.09674793E+09   1.43510272E+09   1.52886921E+09   1.52886921E+09
   2.52000000E-02   1.49680603E+09   1.06328673E+09   1.06328673E+09   1.39461766E+09   1.48865086E+09   1.48865086E+09
   2.54000000E-02   1.45778933E+09   1.03074917E+09   1.03074917E+09   1.35505138E+09   1.44926932E+09   1.44926932E+09
   2.56000000E-02   1.41958285E+09   9.99115250E+08   9.99115250E+08   1.31639422E+09   1.41071777E+09   1.41071777E+09
   2.58000000E-02   1.38217949E+09   9.68365074E+08   9.68365074E+08   1.27863601E+09   1.37298886E+09   1.37298886E+09
   2.60000000E-02   1.34557164E+09   9.38478847E+08   9.38478847E+08   1.24176604E+09   1.33607472E+09   1.33607472E+09
   2.62000000E-02   1.30975130E+09   9.09436912E+08   9.09436912E+08   1.20577314E+09   1.29996699E+09   1.29996699E+09
   2.64000000E-02   1.27471001E+09   8.81219774E+08   8.81219774E+08   1.17064574E+09   1.26465690E+09   1.26465690E+09
   2.66000000E-02   1.24043897E+09   8.53808120E+08   8.53808120E+08   1.13637187E+09   1.23013531E+09   1.23013531E+09
   2.68000000E-02   1.20692902E+09   8.27182835E+08   8.27182835E+08   1.10293927E+09   1.19639267E+09   1.19639267E+09
   2.70000000E-02   1.17417072E+09   8.01325018E+08   8.01325018E+08   1.07033532E+09   1.16341915E+09   1.16341915E+09
   2.72000000E-02   1.14215431E+09   7.76216002E+08   7.76216002E+08   1.03854720E+09   1.13120460E+09   1.13120460E+09
   2.74000000E-02   1.11086981E+09   7.51837361E+08   7.51837361E+08   1.00756182E+09   1.09973861E+09   1.09973861E+09
   2.76000000E-02   1.08030701E+09   7.28170926E+08   7.28170926E+08   9.77365911E+08   1.06901055E+09   1.06901055E+09
   2.78000000E-02   1.05045549E+09   7.05198795E+08   7.05198795E+08   9.47946042E+08   1.03900957E+09   1.03900957E+09
   2.80000000E-02   1.02130467E+09   6.82903340E+08   6.82903340E+08   9.19288639E+08   1.00972464E+09   1.00972464E+09
   2.82000000E-02   9.92843806E+08   6.61267218E+08   6.61267218E+08   8.91380020E+08   9.81144569E+08   9.81144569E+08
   2.84000000E-02   9.65062038E+08   6.40273373E+08   6.40273373E+08   8.64206423E+08   9.53258040E+08   9.53258040E+08
   2.86000000E-02   9.37948388E+08   6.19905047E+08   6.19905047E+08   8.37754022E+08   9.26053620E+08   9.26053620E+08
   2.88000000E-02   9.11491792E+08   6.00145784E+08   6.00145784E+08   8.12008957E+08   8.99519787E+08   8.99519787E+08
   2.90000000E-02   8.85681116E+08   5.80979430E+08   5.80979430E+08   7.86957350E+08   8.73644946E+08   8.73644946E+08
   2.92000000E-02   8.60505171E+08   5.62390138E+08   5.62390138E+08   7.62585328E+08   8.48417449E+08   8.48417449E+08
   2.94000000E-02   8.35952735E+08   5.44362374E+08   5.44362374E+08   7.38879041E+08   8.23825614E+08   8.23825614E+08
   2.96000000E-02   8.12012562E+08   5.26880913E+08   5.26880913E+08   7.15824677E+08   7.99857740E+08   7.99857740E+08
   2.98000000E-02   7.88673400E+08   5.09930840E+08   5.09930840E+08   6.93408481E+08   7.76502123E+08   7.76502123E+08
   3.00000000E-02   7.65924007E+08   4.93497557E+08   4.93497557E+08   6.71616769E+08   7.53747068E+08   7.53747068E+08
   3.02000000E-02   7.43753159E+08   4.77566773E+08   4.77566773E+08   6.50435941E+08   7.31580908E+08   7.31580908E+08
   3.04000000E-02   7.22149664E+08   4.62124512E+08   4.62124512E+08   6.29852496E+08   7.09992010E+08   7.09992010E+08
   3.06000000E-02   7.01102374E+08   4.47157106E+08   4.47157106E+08   6.09853041E+08   6.88968793E+08   6.88968793E+08
   3.08000000E-02   6.80600197E+08   4.32651193E+08   4.32651193E+08   5.90424304E+08   6.68499736E+08   6.68499736E+08
   3.10000000E-02   6.60632103E+08   4.18593721E+08   4.18593721E+08   5.71553144E+08   6.48573388E+08   6.48573388E+08
   3.12000000E-02   6.41187135E+08   4.04971936E+08   4.04971936E+08   5.53226560E+08   6.29178378E+08   6.29178378E+08
   3.14000000E-02   6.22254418E+08   3.91773390E+08   3.91773390E+08   5.35431700E+08   6.10303426E+08   6.10303426E+08
   3.16000000E-02   6.03823166E+08   3.78985927E+08   3.78985927E+08   5.18155865E+08   5.91937347E+08   5.91937347E+08
   3.18000000E-02   5.85882690E+08   3.66597687E+08   3.66597687E+08   5.01386523E+08   5.74069063E+08   5.74069063E+08
   3.20000000E-02   5.68422405E+08   3.54597100E+08   3.54597100E+08   4.85111308E+08   5.56687606E+08   5.56687606E+08
   3.22000000E-02   5.51431833E+08   3.42972884E+08   3.42972884E+08   4.69318031E+08   5.39782129E+08   5.39782129E+08
   3.24000000E-02   5.34900613E+08   3.31714035E+08   3.31714035E+08   4.53994679E+08   5.23341906E+08   5.23341906E+08
   3.26000000E-02   5.18818504E+08   3.20809830E+08   3.20809830E+08   4.39129428E+08   5.07356341E+08   5.07356341E+08
   3.28000000E-02   5.03175389E+08   3.10249820E+08   3.10249820E+08   4.24710639E+08   4.91814975E+08   4.91814975E+08
