# TBinMid=0.025 ssec TBinWidth=0.01 ss EBinWidth=0.2MeV Fluence at Earth for this timebin in neutrinos per cm^2
# E(GeV)	NuE	NuMu	NuTau	aNuE	aNuMu	aNuTau
   1.38589050E-13   2.23861078E-25   1.17014551E-25   1.17014551E-25   7.30641099E-26   1.92413035E-25   1.92413035E-25
   2.00000000E-04   1.10971483E+05   1.02645062E+05   1.02645062E+05   4.30592002E+04   9.53589923E+04   9.53589923E+04
   4.00000000E-04   1.00996849E+06   1.29068622E+06   1.29068622E+06   4.49924733E+05   8.68490558E+05   8.68490558E+05
   6.00000000E-04   3.60057622E+06   5.73636737E+06   5.73636737E+06   1.79467530E+06   3.09953865E+06   3.09953865E+06
   8.00000000E-04   8.73830682E+06   1.63842693E+07   1.63842693E+07   4.78197462E+06   7.53255585E+06   7.53255585E+06
   1.00000000E-03   1.71685751E+07   3.65165348E+07   3.65165348E+07   1.01683069E+07   1.48231355E+07   1.48231355E+07
   1.20000000E-03   2.95013084E+07   6.93897790E+07   6.93897790E+07   1.86993361E+07   2.55165945E+07   2.55165945E+07
   1.40000000E-03   4.62021464E+07   1.17960117E+08   1.17960117E+08   3.10620689E+07   4.00397213E+07   4.00397213E+07
   1.60000000E-03   6.75932474E+07   1.84692695E+08   1.84692695E+08   4.78504967E+07   5.87003092E+07   5.87003092E+07
   1.80000000E-03   9.38600991E+07   2.71444831E+08   2.71444831E+08   6.95429740E+07   8.16915752E+07   8.16915752E+07
   2.00000000E-03   1.25062108E+08   3.79409734E+08   3.79409734E+08   9.64894470E+07   1.09099711E+08   1.09099711E+08
   2.20000000E-03   1.61145459E+08   5.09107848E+08   5.09107848E+08   1.28906688E+08   1.40913395E+08   1.40913395E+08
   2.40000000E-03   2.01957177E+08   6.60414039E+08   6.60414039E+08   1.66879833E+08   1.77034441E+08   1.77034441E+08
   2.60000000E-03   2.47259606E+08   8.32610349E+08   8.32610349E+08   2.10368715E+08   2.17288974E+08   2.17288974E+08
   2.80000000E-03   2.96744751E+08   1.02445571E+09   1.02445571E+09   2.59217671E+08   2.61438693E+08   2.61438693E+08
   3.00000000E-03   3.50048079E+08   1.23426561E+09   1.23426561E+09   3.13167740E+08   3.09191894E+08   3.09191894E+08
   3.20000000E-03   4.06761497E+08   1.45999611E+09   1.45999611E+09   3.71870308E+08   3.60214019E+08   3.60214019E+08
   3.40000000E-03   4.66445327E+08   1.69932792E+09   1.69932792E+09   4.34901485E+08   4.14137567E+08   4.14137567E+08
   3.60000000E-03   5.28639165E+08   1.94974739E+09   1.94974739E+09   5.01776590E+08   4.70571246E+08   4.70571246E+08
   3.80000000E-03   5.92871576E+08   2.20862200E+09   2.20862200E+09   5.71964325E+08   5.29108322E+08   5.29108322E+08
   4.00000000E-03   6.58668612E+08   2.47326900E+09   2.47326900E+09   6.44900257E+08   5.89334111E+08   5.89334111E+08
   4.20000000E-03   7.25561175E+08   2.74101610E+09   2.74101610E+09   7.19999386E+08   6.50832614E+08   6.50832614E+08
   4.40000000E-03   7.93091271E+08   3.00925394E+09   3.00925394E+09   7.96667618E+08   7.13192321E+08   7.13192321E+08
   4.60000000E-03   8.60817232E+08   3.27548012E+09   3.27548012E+09   8.74312045E+08   7.76011192E+08   7.76011192E+08
   4.80000000E-03   9.28317958E+08   3.53733519E+09   3.53733519E+09   9.52349981E+08   8.38900874E+08   8.38900874E+08
   5.00000000E-03   9.95196279E+08   3.79263084E+09   3.79263084E+09   1.03021675E+09   9.01490196E+08   9.01490196E+08
   5.20000000E-03   1.06108151E+09   4.03937098E+09   4.03937098E+09   1.10737227E+09   9.63427984E+08   9.63427984E+08
   5.40000000E-03   1.12563129E+09   4.27576634E+09   4.27576634E+09   1.18330640E+09   1.02438528E+09   1.02438528E+09
   5.60000000E-03   1.18853280E+09   4.50024323E+09   4.50024323E+09   1.25754327E+09   1.08405697E+09   1.08405697E+09
   5.80000000E-03   1.24950339E+09   4.71144726E+09   4.71144726E+09   1.32964452E+09   1.14216296E+09   1.14216296E+09
   6.00000000E-03   1.30829077E+09   4.90824269E+09   4.90824269E+09   1.39921161E+09   1.19844888E+09   1.19844888E+09
   6.20000000E-03   1.36467276E+09   5.08970806E+09   5.08970806E+09   1.46588733E+09   1.25268638E+09   1.25268638E+09
   6.40000000E-03   1.41845673E+09   5.25512885E+09   5.25512885E+09   1.52935651E+09   1.30467312E+09   1.30467312E+09
   6.60000000E-03   1.46947871E+09   5.40398765E+09   5.40398765E+09   1.58934606E+09   1.35423243E+09   1.35423243E+09
   6.80000000E-03   1.51760231E+09   5.53595246E+09   5.53595246E+09   1.64562453E+09   1.40121277E+09   1.40121277E+09
   7.00000000E-03   1.56271747E+09   5.65086359E+09   5.65086359E+09   1.69800108E+09   1.44548697E+09   1.44548697E+09
   7.20000000E-03   1.60473903E+09   5.74871961E+09   5.74871961E+09   1.74632411E+09   1.48695122E+09   1.48695122E+09
   7.40000000E-03   1.64360520E+09   5.82966270E+09   5.82966270E+09   1.79047954E+09   1.52552407E+09   1.52552407E+09
   7.60000000E-03   1.67927604E+09   5.89396374E+09   5.89396374E+09   1.83038881E+09   1.56114519E+09   1.56114519E+09
   7.80000000E-03   1.71173181E+09   5.94200743E+09   5.94200743E+09   1.86600674E+09   1.59377416E+09   1.59377416E+09
   8.00000000E-03   1.74097136E+09   5.97427767E+09   5.97427767E+09   1.89731918E+09   1.62338910E+09   1.62338910E+09
   8.20000000E-03   1.76701051E+09   5.99134340E+09   5.99134340E+09   1.92434061E+09   1.64998537E+09   1.64998537E+09
   8.40000000E-03   1.78988047E+09   5.99384496E+09   5.99384496E+09   1.94711164E+09   1.67357418E+09   1.67357418E+09
   8.60000000E-03   1.80962627E+09   5.98248127E+09   5.98248127E+09   1.96569658E+09   1.69418128E+09   1.69418128E+09
   8.80000000E-03   1.82630529E+09   5.95799769E+09   5.95799769E+09   1.98018091E+09   1.71184555E+09   1.71184555E+09
   9.00000000E-03   1.83998579E+09   5.92117485E+09   5.92117485E+09   1.99066891E+09   1.72661775E+09   1.72661775E+09
   9.20000000E-03   1.85074557E+09   5.87281829E+09   5.87281829E+09   1.99728130E+09   1.73855922E+09   1.73855922E+09
   9.40000000E-03   1.85867065E+09   5.81374903E+09   5.81374903E+09   2.00015293E+09   1.74774065E+09   1.74774065E+09
   9.60000000E-03   1.86385405E+09   5.74479508E+09   5.74479508E+09   1.99943070E+09   1.75424092E+09   1.75424092E+09
   9.80000000E-03   1.86639465E+09   5.66678382E+09   5.66678382E+09   1.99527142E+09   1.75814593E+09   1.75814593E+09
   1.00000000E-02   1.86639611E+09   5.58053525E+09   5.58053525E+09   1.98783995E+09   1.75954759E+09   1.75954759E+09
   1.02000000E-02   1.86396590E+09   5.48685609E+09   5.48685609E+09   1.97730736E+09   1.75854282E+09   1.75854282E+09
   1.04000000E-02   1.85921438E+09   5.38653469E+09   5.38653469E+09   1.96384926E+09   1.75523254E+09   1.75523254E+09
   1.06000000E-02   1.85225396E+09   5.28033669E+09   5.28033669E+09   1.94764426E+09   1.74972090E+09   1.74972090E+09
   1.08000000E-02   1.84319831E+09   5.16900136E+09   5.16900136E+09   1.92887257E+09   1.74211437E+09   1.74211437E+09
   1.10000000E-02   1.83216174E+09   5.05323864E+09   5.05323864E+09   1.90771472E+09   1.73252107E+09   1.73252107E+09
   1.12000000E-02   1.81925851E+09   4.93372677E+09   4.93372677E+09   1.88435038E+09   1.72105005E+09   1.72105005E+09
   1.14000000E-02   1.80460227E+09   4.81111044E+09   4.81111044E+09   1.85895736E+09   1.70781066E+09   1.70781066E+09
   1.16000000E-02   1.78830562E+09   4.68599949E+09   4.68599949E+09   1.83171066E+09   1.69291198E+09   1.69291198E+09
   1.18000000E-02   1.77047959E+09   4.55896804E+09   4.55896804E+09   1.80278171E+09   1.67646235E+09   1.67646235E+09
   1.20000000E-02   1.75123331E+09   4.43055401E+09   4.43055401E+09   1.77233764E+09   1.65856887E+09   1.65856887E+09
   1.22000000E-02   1.73067365E+09   4.30125900E+09   4.30125900E+09   1.74054068E+09   1.63933699E+09   1.63933699E+09
   1.24000000E-02   1.70890493E+09   4.17154854E+09   4.17154854E+09   1.70754769E+09   1.61887020E+09   1.61887020E+09
   1.26000000E-02   1.68602867E+09   4.04185249E+09   4.04185249E+09   1.67350973E+09   1.59726965E+09   1.59726965E+09
   1.28000000E-02   1.66214338E+09   3.91256580E+09   3.91256580E+09   1.63857171E+09   1.57463394E+09   1.57463394E+09
   1.30000000E-02   1.63734440E+09   3.78404939E+09   3.78404939E+09   1.60287214E+09   1.55105884E+09   1.55105884E+09
   1.32000000E-02   1.61172376E+09   3.65663120E+09   3.65663120E+09   1.56654297E+09   1.52663716E+09   1.52663716E+09
   1.34000000E-02   1.58537008E+09   3.53060744E+09   3.53060744E+09   1.52970939E+09   1.50145850E+09   1.50145850E+09
   1.36000000E-02   1.55836845E+09   3.40624383E+09   3.40624383E+09   1.49248982E+09   1.47560921E+09   1.47560921E+09
   1.38000000E-02   1.53080045E+09   3.28377702E+09   3.28377702E+09   1.45499587E+09   1.44917224E+09   1.44917224E+09
   1.40000000E-02   1.50274405E+09   3.16341603E+09   3.16341603E+09   1.41733234E+09   1.42222708E+09   1.42222708E+09
   1.42000000E-02   1.47427363E+09   3.04534373E+09   3.04534373E+09   1.37959731E+09   1.39484971E+09   1.39484971E+09
   1.44000000E-02   1.44546000E+09   2.92971836E+09   2.92971836E+09   1.34188221E+09   1.36711258E+09   1.36711258E+09
   1.46000000E-02   1.41637041E+09   2.81667502E+09   2.81667502E+09   1.30427196E+09   1.33908462E+09   1.33908462E+09
   1.48000000E-02   1.38706857E+09   2.70632718E+09   2.70632718E+09   1.26684513E+09   1.31083121E+09   1.31083121E+09
   1.50000000E-02   1.35761474E+09   2.59876818E+09   2.59876818E+09   1.22967409E+09   1.28241424E+09   1.28241424E+09
   1.52000000E-02   1.32806575E+09   2.49407269E+09   2.49407269E+09   1.19282524E+09   1.25389212E+09   1.25389212E+09
   1.54000000E-02   1.29847510E+09   2.39229811E+09   2.39229811E+09   1.15635916E+09   1.22531990E+09   1.22531990E+09
   1.56000000E-02   1.26889304E+09   2.29348597E+09   2.29348597E+09   1.12033091E+09   1.19674924E+09   1.19674924E+09
   1.58000000E-02   1.23936663E+09   2.19766323E+09   2.19766323E+09   1.08479018E+09   1.16822856E+09   1.16822856E+09
   1.60000000E-02   1.20993984E+09   2.10484362E+09   2.10484362E+09   1.04978158E+09   1.13980310E+09   1.13980310E+09
   1.62000000E-02   1.18065367E+09   2.01502879E+09   2.01502879E+09   1.01534484E+09   1.11151496E+09   1.11151496E+09
   1.64000000E-02   1.15154620E+09   1.92820951E+09   1.92820951E+09   9.81515107E+08   1.08340330E+09   1.08340330E+09
   1.66000000E-02   1.12265275E+09   1.84436678E+09   1.84436678E+09   9.48323134E+08   1.05550431E+09   1.05550431E+09
   1.68000000E-02   1.09400593E+09   1.76347284E+09   1.76347284E+09   9.15795554E+08   1.02785142E+09   1.02785142E+09
   1.70000000E-02   1.06563577E+09   1.68549219E+09   1.68549219E+09   8.83955112E+08   1.00047533E+09   1.00047533E+09
   1.72000000E-02   1.03756983E+09   1.61038247E+09   1.61038247E+09   8.52820903E+08   9.73404165E+08   9.73404165E+08
   1.74000000E-02   1.00983328E+09   1.53809534E+09   1.53809534E+09   8.22408605E+08   9.46663558E+08   9.46663558E+08
   1.76000000E-02   9.82449043E+08   1.46857729E+09   1.46857729E+09   7.92730705E+08   9.20276756E+08   9.20276756E+08
   1.78000000E-02   9.55437849E+08   1.40177037E+09   1.40177037E+09   7.63796722E+08   8.94264739E+08   8.94264739E+08
   1.80000000E-02   9.28818380E+08   1.33761287E+09   1.33761287E+09   7.35613419E+08   8.68646322E+08   8.68646322E+08
   1.82000000E-02   9.02607351E+08   1.27603998E+09   1.27603998E+09   7.08185011E+08   8.43438259E+08   8.43438259E+08
   1.84000000E-02   8.76819611E+08   1.21698434E+09   1.21698434E+09   6.81513364E+08   8.18655352E+08   8.18655352E+08
   1.86000000E-02   8.51468242E+08   1.16037660E+09   1.16037660E+09   6.55598185E+08   7.94310550E+08   7.94310550E+08
   1.88000000E-02   8.26564650E+08   1.10614589E+09   1.10614589E+09   6.30437206E+08   7.70415054E+08   7.70415054E+08
   1.90000000E-02   8.02118661E+08   1.05422030E+09   1.05422030E+09   6.06026354E+08   7.46978411E+08   7.46978411E+08
   1.92000000E-02   7.78138608E+08   1.00452720E+09   1.00452720E+09   5.82359926E+08   7.24008612E+08   7.24008612E+08
   1.94000000E-02   7.54631421E+08   9.56993679E+08   9.56993679E+08   5.59430736E+08   7.01512187E+08   7.01512187E+08
   1.96000000E-02   7.31602704E+08   9.11546841E+08   9.11546841E+08   5.37230271E+08   6.79494293E+08   6.79494293E+08
   1.98000000E-02   7.09056825E+08   8.68114083E+08   8.68114083E+08   5.15748829E+08   6.57958804E+08   6.57958804E+08
   2.00000000E-02   6.86996986E+08   8.26623359E+08   8.26623359E+08   4.94975649E+08   6.36908393E+08   6.36908393E+08
   2.02000000E-02   6.65425306E+08   7.87003407E+08   7.87003407E+08   4.74899043E+08   6.16344614E+08   6.16344614E+08
   2.04000000E-02   6.44342889E+08   7.49183947E+08   7.49183947E+08   4.55506505E+08   5.96267982E+08   5.96267982E+08
   2.06000000E-02   6.23749893E+08   7.13095848E+08   7.13095848E+08   4.36784822E+08   5.76678047E+08   5.76678047E+08
   2.08000000E-02   6.03645601E+08   6.78671278E+08   6.78671278E+08   4.18720178E+08   5.57573466E+08   5.57573466E+08
   2.10000000E-02   5.84028479E+08   6.45843833E+08   6.45843833E+08   4.01298248E+08   5.38952073E+08   5.38952073E+08
   2.12000000E-02   5.64896244E+08   6.14548635E+08   6.14548635E+08   3.84504283E+08   5.20810941E+08   5.20810941E+08
   2.14000000E-02   5.46245917E+08   5.84722427E+08   5.84722427E+08   3.68323195E+08   5.03146450E+08   5.03146450E+08
   2.16000000E-02   5.28073879E+08   5.56303636E+08   5.56303636E+08   3.52739629E+08   4.85954343E+08   4.85954343E+08
   2.18000000E-02   5.10375929E+08   5.29232432E+08   5.29232432E+08   3.37738035E+08   4.69229784E+08   4.69229784E+08
   2.20000000E-02   4.93147327E+08   5.03450770E+08   5.03450770E+08   3.23302726E+08   4.52967412E+08   4.52967412E+08
   2.22000000E-02   4.76382847E+08   4.78902415E+08   4.78902415E+08   3.09417945E+08   4.37161389E+08   4.37161389E+08
   2.24000000E-02   4.60076822E+08   4.55532964E+08   4.55532964E+08   2.96067908E+08   4.21805453E+08   4.21805453E+08
   2.26000000E-02   4.44223184E+08   4.33289849E+08   4.33289849E+08   2.83236857E+08   4.06892959E+08   4.06892959E+08
   2.28000000E-02   4.28815507E+08   4.12122341E+08   4.12122341E+08   2.70909106E+08   3.92416926E+08   3.92416926E+08
   2.30000000E-02   4.13847045E+08   3.91981536E+08   3.91981536E+08   2.59069074E+08   3.78370073E+08   3.78370073E+08
   2.32000000E-02   3.99310769E+08   3.72820344E+08   3.72820344E+08   2.47701324E+08   3.64744859E+08   3.64744859E+08
   2.34000000E-02   3.85199399E+08   3.54593463E+08   3.54593463E+08   2.36790594E+08   3.51533519E+08   3.51533519E+08
   2.36000000E-02   3.71505438E+08   3.37257356E+08   3.37257356E+08   2.26321825E+08   3.38728097E+08   3.38728097E+08
   2.38000000E-02   3.58221202E+08   3.20770216E+08   3.20770216E+08   2.16280183E+08   3.26320476E+08   3.26320476E+08
   2.40000000E-02   3.45338849E+08   3.05091934E+08   3.05091934E+08   2.06651084E+08   3.14302409E+08   3.14302409E+08
   2.42000000E-02   3.32850401E+08   2.90184058E+08   2.90184058E+08   1.97420211E+08   3.02665544E+08   3.02665544E+08
   2.44000000E-02   3.20747775E+08   2.76009753E+08   2.76009753E+08   1.88573531E+08   2.91401451E+08   2.91401451E+08
   2.46000000E-02   3.09022805E+08   2.62533758E+08   2.62533758E+08   1.80097306E+08   2.80501644E+08   2.80501644E+08
   2.48000000E-02   2.97667259E+08   2.49722343E+08   2.49722343E+08   1.71978108E+08   2.69957603E+08   2.69957603E+08
   2.50000000E-02   2.86672865E+08   2.37543258E+08   2.37543258E+08   1.64202826E+08   2.59760795E+08   2.59760795E+08
   2.52000000E-02   2.76031326E+08   2.25965691E+08   2.25965691E+08   1.56758672E+08   2.49902691E+08   2.49902691E+08
   2.54000000E-02   2.65734338E+08   2.14960220E+08   2.14960220E+08   1.49633191E+08   2.40374784E+08   2.40374784E+08
   2.56000000E-02   2.55773607E+08   2.04498761E+08   2.04498761E+08   1.42814261E+08   2.31168604E+08   2.31168604E+08
   2.58000000E-02   2.46140864E+08   1.94554525E+08   1.94554525E+08   1.36290099E+08   2.22275731E+08   2.22275731E+08
   2.60000000E-02   2.36827877E+08   1.85101968E+08   1.85101968E+08   1.30049257E+08   2.13687813E+08   2.13687813E+08
   2.62000000E-02   2.27826467E+08   1.76116745E+08   1.76116745E+08   1.24080629E+08   2.05396571E+08   2.05396571E+08
   2.64000000E-02   2.19128513E+08   1.67575661E+08   1.67575661E+08   1.18373444E+08   1.97393815E+08   1.97393815E+08
   2.66000000E-02   2.10725970E+08   1.59456628E+08   1.59456628E+08   1.12917269E+08   1.89671451E+08   1.89671451E+08
   2.68000000E-02   2.02610874E+08   1.51738617E+08   1.51738617E+08   1.07702001E+08   1.82221488E+08   1.82221488E+08
   2.70000000E-02   1.94775352E+08   1.44401616E+08   1.44401616E+08   1.02717871E+08   1.75036053E+08   1.75036053E+08
   2.72000000E-02   1.87211629E+08   1.37426588E+08   1.37426588E+08   9.79554295E+07   1.68107388E+08   1.68107388E+08
   2.74000000E-02   1.79912036E+08   1.30795424E+08   1.30795424E+08   9.34055516E+07   1.61427863E+08   1.61427863E+08
   2.76000000E-02   1.72869018E+08   1.24490907E+08   1.24490907E+08   8.90594257E+07   1.54989980E+08   1.54989980E+08
   2.78000000E-02   1.66075133E+08   1.18496670E+08   1.18496670E+08   8.49085499E+07   1.48786376E+08   1.48786376E+08
   2.80000000E-02   1.59523067E+08   1.12797158E+08   1.12797158E+08   8.09447254E+07   1.42809826E+08   1.42809826E+08
   2.82000000E-02   1.53205628E+08   1.07377593E+08   1.07377593E+08   7.71600501E+07   1.37053252E+08   1.37053252E+08
   2.84000000E-02   1.47115757E+08   1.02223932E+08   1.02223932E+08   7.35469120E+07   1.31509718E+08   1.31509718E+08
   2.86000000E-02   1.41246529E+08   9.73228389E+07   9.73228389E+07   7.00979820E+07   1.26172438E+08   1.26172438E+08
   2.88000000E-02   1.35591154E+08   9.26616494E+07   9.26616494E+07   6.68062071E+07   1.21034773E+08   1.21034773E+08
   2.90000000E-02   1.30142981E+08   8.82283364E+07   8.82283364E+07   6.36648028E+07   1.16090239E+08   1.16090239E+08
   2.92000000E-02   1.24895500E+08   8.40114817E+07   8.40114817E+07   6.06672462E+07   1.11332501E+08   1.11332501E+08
   2.94000000E-02   1.19842341E+08   8.00002457E+07   8.00002457E+07   5.78072679E+07   1.06755375E+08   1.06755375E+08
   2.96000000E-02   1.14977280E+08   7.61843390E+07   7.61843390E+07   5.50788456E+07   1.02352831E+08   1.02352831E+08
   2.98000000E-02   1.10294231E+08   7.25539954E+07   7.25539954E+07   5.24761955E+07   9.81189906E+07   9.81189906E+07
   3.00000000E-02   1.05787257E+08   6.90999456E+07   6.90999456E+07   4.99937659E+07   9.40481266E+07   9.40481266E+07
   3.02000000E-02   1.01450560E+08   6.58133929E+07   6.58133929E+07   4.76262293E+07   9.01346619E+07   9.01346619E+07
   3.04000000E-02   9.72784886E+07   6.26859889E+07   6.26859889E+07   4.53684751E+07   8.63731688E+07   8.63731688E+07
   3.06000000E-02   9.32655319E+07   5.97098115E+07   5.97098115E+07   4.32156025E+07   8.27583679E+07   8.27583679E+07
   3.08000000E-02   8.94063215E+07   5.68773427E+07   5.68773427E+07   4.11629136E+07   7.92851262E+07   7.92851262E+07
   3.10000000E-02   8.56956298E+07   5.41814484E+07   5.41814484E+07   3.92059059E+07   7.59484554E+07   7.59484554E+07
   3.12000000E-02   8.21283689E+07   5.16153584E+07   5.16153584E+07   3.73402659E+07   7.27435103E+07   7.27435103E+07
   3.14000000E-02   7.86995889E+07   4.91726482E+07   4.91726482E+07   3.55618620E+07   6.96655868E+07   6.96655868E+07
   3.16000000E-02   7.54044769E+07   4.68472211E+07   4.68472211E+07   3.38667381E+07   6.67101191E+07   6.67101191E+07
   3.18000000E-02   7.22383547E+07   4.46332909E+07   4.46332909E+07   3.22511069E+07   6.38726786E+07   6.38726786E+07
   3.20000000E-02   6.91966773E+07   4.25253664E+07   4.25253664E+07   3.07113440E+07   6.11489703E+07   6.11489703E+07
   3.22000000E-02   6.62750312E+07   4.05182356E+07   4.05182356E+07   2.92439814E+07   5.85348313E+07   5.85348313E+07
   3.24000000E-02   6.34691317E+07   3.86069518E+07   3.86069518E+07   2.78457013E+07   5.60262278E+07   5.60262278E+07
   3.26000000E-02   6.07748215E+07   3.67868193E+07   3.67868193E+07   2.65133309E+07   5.36192528E+07   5.36192528E+07
   3.28000000E-02   5.81880680E+07   3.50533804E+07   3.50533804E+07   2.52438363E+07   5.13101231E+07   5.13101231E+07
