# TBinMid=1.85 ssec TBinWidth=0.1 ss EBinWidth=0.2MeV Fluence at Earth for this timebin in neutrinos per cm^2
# E(GeV)	NuE	NuMu	NuTau	aNuE	aNuMu	aNuTau
   1.38589050E-13   6.50422398E-15   3.39990152E-15   3.39990152E-15   2.12388263E-15   5.59074680E-15   5.59074680E-15
   2.00000000E-04   4.19822307E+06   3.33156475E+06   3.33156475E+06   2.23050301E+06   3.76864413E+06   3.76864413E+06
   4.00000000E-04   1.95345825E+07   1.74039387E+07   1.74039387E+07   1.13930026E+07   1.77041545E+07   1.77041545E+07
   6.00000000E-04   4.71701292E+07   4.52590902E+07   4.52590902E+07   2.91856395E+07   4.30249297E+07   4.30249297E+07
   8.00000000E-04   8.70600415E+07   8.81707456E+07   8.81707456E+07   5.62700754E+07   7.98036827E+07   7.98036827E+07
   1.00000000E-03   1.38670593E+08   1.46443438E+08   1.46443438E+08   9.27877322E+07   1.27634375E+08   1.27634375E+08
   1.20000000E-03   2.01213640E+08   2.19752358E+08   2.19752358E+08   1.38557068E+08   1.85854146E+08   1.85854146E+08
   1.40000000E-03   2.73762893E+08   3.07346075E+08   3.07346075E+08   1.93182592E+08   2.53654733E+08   2.53654733E+08
   1.60000000E-03   3.55321484E+08   4.08183414E+08   4.08183414E+08   2.56124447E+08   3.30147986E+08   3.30147986E+08
   1.80000000E-03   4.44864666E+08   5.21031744E+08   5.21031744E+08   3.26746421E+08   4.14407789E+08   4.14407789E+08
   2.00000000E-03   5.41368118E+08   6.44539973E+08   6.44539973E+08   4.04350627E+08   5.05498228E+08   5.05498228E+08
   2.20000000E-03   6.43827175E+08   7.77293720E+08   7.77293720E+08   4.88203295E+08   6.02493050E+08   6.02493050E+08
   2.40000000E-03   7.51270026E+08   9.17857360E+08   9.17857360E+08   5.77554265E+08   7.04489288E+08   7.04489288E+08
   2.60000000E-03   8.62766704E+08   1.06480608E+09   1.06480608E+09   6.71651880E+08   8.10616790E+08   8.10616790E+08
   2.80000000E-03   9.77435071E+08   1.21675016E+09   1.21675016E+09   7.69754374E+08   9.20044809E+08   9.20044809E+08
   3.00000000E-03   1.09444460E+09   1.37235317E+09   1.37235317E+09   8.71138580E+08   1.03198641E+09   1.03198641E+09
   3.20000000E-03   1.21301852E+09   1.53034524E+09   1.53034524E+09   9.75106503E+08   1.14570125E+09   1.14570125E+09
   3.40000000E-03   1.33243476E+09   1.68953250E+09   1.68953250E+09   1.08099022E+09   1.26049712E+09   1.26049712E+09
   3.60000000E-03   1.45202590E+09   1.84880334E+09   1.84880334E+09   1.18815545E+09   1.37573056E+09   1.37573056E+09
   3.80000000E-03   1.57117851E+09   2.00713218E+09   2.00713218E+09   1.29600397E+09   1.49080674E+09   1.49080674E+09
   4.00000000E-03   1.68933193E+09   2.16358124E+09   2.16358124E+09   1.40397525E+09   1.60517873E+09   1.60517873E+09
   4.20000000E-03   1.80597663E+09   2.31730068E+09   2.31730068E+09   1.51154730E+09   1.71834651E+09   1.71834651E+09
   4.40000000E-03   1.92065232E+09   2.46752748E+09   2.46752748E+09   1.61823697E+09   1.82985544E+09   1.82985544E+09
   4.60000000E-03   2.03294588E+09   2.61358338E+09   2.61358338E+09   1.72359978E+09   1.93929472E+09   1.93929472E+09
   4.80000000E-03   2.14248910E+09   2.75487199E+09   2.75487199E+09   1.82722939E+09   2.04629552E+09   2.04629552E+09
   5.00000000E-03   2.24895638E+09   2.89087535E+09   2.89087535E+09   1.92875674E+09   2.15052905E+09   2.15052905E+09
   5.20000000E-03   2.35206237E+09   3.02115008E+09   3.02115008E+09   2.02784899E+09   2.25170460E+09   2.25170460E+09
   5.40000000E-03   2.45155959E+09   3.14532327E+09   3.14532327E+09   2.12420827E+09   2.34956745E+09   2.34956745E+09
   5.60000000E-03   2.54723611E+09   3.26308813E+09   3.26308813E+09   2.21757027E+09   2.44389684E+09   2.44389684E+09
   5.80000000E-03   2.63891319E+09   3.37419957E+09   3.37419957E+09   2.30770278E+09   2.53450393E+09   2.53450393E+09
   6.00000000E-03   2.72644307E+09   3.47846976E+09   3.47846976E+09   2.39440411E+09   2.62122976E+09   2.62122976E+09
   6.20000000E-03   2.80970670E+09   3.57576374E+09   3.57576374E+09   2.47750147E+09   2.70394328E+09   2.70394328E+09
   6.40000000E-03   2.88861169E+09   3.66599506E+09   3.66599506E+09   2.55684938E+09   2.78253945E+09   2.78253945E+09
   6.60000000E-03   2.96309023E+09   3.74912158E+09   3.74912158E+09   2.63232801E+09   2.85693731E+09   2.85693731E+09
   6.80000000E-03   3.03309710E+09   3.82514136E+09   3.82514136E+09   2.70384158E+09   2.92707823E+09   2.92707823E+09
   7.00000000E-03   3.09860786E+09   3.89408879E+09   3.89408879E+09   2.77131673E+09   2.99292416E+09   2.99292416E+09
   7.20000000E-03   3.15961701E+09   3.95603081E+09   3.95603081E+09   2.83470098E+09   3.05445595E+09   3.05445595E+09
   7.40000000E-03   3.21613633E+09   4.01106341E+09   4.01106341E+09   2.89396121E+09   3.11167179E+09   3.11167179E+09
   7.60000000E-03   3.26819326E+09   4.05930821E+09   4.05930821E+09   2.94908215E+09   3.16458567E+09   3.16458567E+09
   7.80000000E-03   3.31582938E+09   4.10090936E+09   4.10090936E+09   3.00006496E+09   3.21322599E+09   3.21322599E+09
   8.00000000E-03   3.35909903E+09   4.13603058E+09   4.13603058E+09   3.04692588E+09   3.25763413E+09   3.25763413E+09
   8.20000000E-03   3.39806788E+09   4.16485238E+09   4.16485238E+09   3.08969486E+09   3.29786324E+09   3.29786324E+09
   8.40000000E-03   3.43281177E+09   4.18756951E+09   4.18756951E+09   3.12841435E+09   3.33397700E+09   3.33397700E+09
   8.60000000E-03   3.46341545E+09   4.20438861E+09   4.20438861E+09   3.16313808E+09   3.36604844E+09   3.36604844E+09
   8.80000000E-03   3.48997155E+09   4.21552598E+09   4.21552598E+09   3.19392992E+09   3.39415894E+09   3.39415894E+09
   9.00000000E-03   3.51257949E+09   4.22120561E+09   4.22120561E+09   3.22086279E+09   3.41839717E+09   3.41839717E+09
   9.20000000E-03   3.53134455E+09   4.22165734E+09   4.22165734E+09   3.24401768E+09   3.43885821E+09   3.43885821E+09
   9.40000000E-03   3.54637702E+09   4.21711515E+09   4.21711515E+09   3.26348264E+09   3.45564259E+09   3.45564259E+09
   9.60000000E-03   3.55779132E+09   4.20781569E+09   4.20781569E+09   3.27935191E+09   3.46885558E+09   3.46885558E+09
   9.80000000E-03   3.56570528E+09   4.19399685E+09   4.19399685E+09   3.29172507E+09   3.47860634E+09   3.47860634E+09
   1.00000000E-02   3.57023943E+09   4.17589657E+09   4.17589657E+09   3.30070625E+09   3.48500728E+09   3.48500728E+09
   1.02000000E-02   3.57151635E+09   4.15375170E+09   4.15375170E+09   3.30640339E+09   3.48817340E+09   3.48817340E+09
   1.04000000E-02   3.56966008E+09   4.12779705E+09   4.12779705E+09   3.30892754E+09   3.48822165E+09   3.48822165E+09
   1.06000000E-02   3.56479560E+09   4.09826448E+09   4.09826448E+09   3.30839226E+09   3.48527044E+09   3.48527044E+09
   1.08000000E-02   3.55704832E+09   4.06538215E+09   4.06538215E+09   3.30491298E+09   3.47943910E+09   3.47943910E+09
   1.10000000E-02   3.54654361E+09   4.02937386E+09   4.02937386E+09   3.29860650E+09   3.47084740E+09   3.47084740E+09
   1.12000000E-02   3.53340643E+09   3.99045847E+09   3.99045847E+09   3.28959047E+09   3.45961518E+09   3.45961518E+09
   1.14000000E-02   3.51776095E+09   3.94884939E+09   3.94884939E+09   3.27798292E+09   3.44586190E+09   3.44586190E+09
   1.16000000E-02   3.49973020E+09   3.90475419E+09   3.90475419E+09   3.26390189E+09   3.42970635E+09   3.42970635E+09
   1.18000000E-02   3.47943578E+09   3.85837421E+09   3.85837421E+09   3.24746495E+09   3.41126629E+09   3.41126629E+09
   1.20000000E-02   3.45699763E+09   3.80990435E+09   3.80990435E+09   3.22878896E+09   3.39065820E+09   3.39065820E+09
   1.22000000E-02   3.43253372E+09   3.75953277E+09   3.75953277E+09   3.20798968E+09   3.36799697E+09   3.36799697E+09
   1.24000000E-02   3.40615993E+09   3.70744079E+09   3.70744079E+09   3.18518151E+09   3.34339576E+09   3.34339576E+09
   1.26000000E-02   3.37798980E+09   3.65380272E+09   3.65380272E+09   3.16047725E+09   3.31696571E+09   3.31696571E+09
   1.28000000E-02   3.34813440E+09   3.59878581E+09   3.59878581E+09   3.13398784E+09   3.28881582E+09   3.28881582E+09
   1.30000000E-02   3.31670219E+09   3.54255021E+09   3.54255021E+09   3.10582220E+09   3.25905277E+09   3.25905277E+09
   1.32000000E-02   3.28379891E+09   3.48524898E+09   3.48524898E+09   3.07608701E+09   3.22778080E+09   3.22778080E+09
   1.34000000E-02   3.24952747E+09   3.42702807E+09   3.42702807E+09   3.04488658E+09   3.19510158E+09   3.19510158E+09
   1.36000000E-02   3.21398788E+09   3.36802647E+09   3.36802647E+09   3.01232273E+09   3.16111412E+09   3.16111412E+09
   1.38000000E-02   3.17727720E+09   3.30837621E+09   3.30837621E+09   2.97849464E+09   3.12591472E+09   3.12591472E+09
   1.40000000E-02   3.13948947E+09   3.24820250E+09   3.24820250E+09   2.94349879E+09   3.08959683E+09   3.08959683E+09
   1.42000000E-02   3.10071570E+09   3.18762385E+09   3.18762385E+09   2.90742885E+09   3.05225110E+09   3.05225110E+09
   1.44000000E-02   3.06104380E+09   3.12675222E+09   3.12675222E+09   2.87037564E+09   3.01396524E+09   3.01396524E+09
   1.46000000E-02   3.02055864E+09   3.06569316E+09   3.06569316E+09   2.83242709E+09   2.97482409E+09   2.97482409E+09
   1.48000000E-02   2.97934199E+09   3.00454598E+09   3.00454598E+09   2.79366817E+09   2.93490952E+09   2.93490952E+09
   1.50000000E-02   2.93747257E+09   2.94340390E+09   2.94340390E+09   2.75418089E+09   2.89430049E+09   2.89430049E+09
   1.52000000E-02   2.89502603E+09   2.88235429E+09   2.88235429E+09   2.71404429E+09   2.85307304E+09   2.85307304E+09
   1.54000000E-02   2.85207500E+09   2.82147882E+09   2.82147882E+09   2.67333444E+09   2.81130026E+09   2.81130026E+09
   1.56000000E-02   2.80868914E+09   2.76085363E+09   2.76085363E+09   2.63212443E+09   2.76905237E+09   2.76905237E+09
   1.58000000E-02   2.76493512E+09   2.70054959E+09   2.70054959E+09   2.59048441E+09   2.72639672E+09   2.72639672E+09
   1.60000000E-02   2.72087671E+09   2.64063244E+09   2.64063244E+09   2.54848157E+09   2.68339780E+09   2.68339780E+09
   1.62000000E-02   2.67657483E+09   2.58116301E+09   2.58116301E+09   2.50618025E+09   2.64011734E+09   2.64011734E+09
   1.64000000E-02   2.63208757E+09   2.52219745E+09   2.52219745E+09   2.46364189E+09   2.59661428E+09   2.59661428E+09
   1.66000000E-02   2.58747027E+09   2.46378737E+09   2.46378737E+09   2.42092512E+09   2.55294487E+09   2.55294487E+09
   1.68000000E-02   2.54277557E+09   2.40598009E+09   2.40598009E+09   2.37808580E+09   2.50916270E+09   2.50916270E+09
   1.70000000E-02   2.49805349E+09   2.34881879E+09   2.34881879E+09   2.33517708E+09   2.46531877E+09   2.46531877E+09
   1.72000000E-02   2.45335146E+09   2.29234274E+09   2.29234274E+09   2.29224943E+09   2.42146152E+09   2.42146152E+09
   1.74000000E-02   2.40871441E+09   2.23658748E+09   2.23658748E+09   2.24935070E+09   2.37763691E+09   2.37763691E+09
   1.76000000E-02   2.36418483E+09   2.18158497E+09   2.18158497E+09   2.20652622E+09   2.33388848E+09   2.33388848E+09
   1.78000000E-02   2.31980285E+09   2.12736384E+09   2.12736384E+09   2.16381883E+09   2.29025740E+09   2.29025740E+09
   1.80000000E-02   2.27560629E+09   2.07394948E+09   2.07394948E+09   2.12126893E+09   2.24678256E+09   2.24678256E+09
   1.82000000E-02   2.23163074E+09   2.02136428E+09   2.02136428E+09   2.07891460E+09   2.20350062E+09   2.20350062E+09
   1.84000000E-02   2.18790964E+09   1.96962778E+09   1.96962778E+09   2.03679160E+09   2.16044605E+09   2.16044605E+09
   1.86000000E-02   2.14447432E+09   1.91875680E+09   1.91875680E+09   1.99493351E+09   2.11765126E+09   2.11765126E+09
   1.88000000E-02   2.10135411E+09   1.86876562E+09   1.86876562E+09   1.95337175E+09   2.07514660E+09   2.07514660E+09
   1.90000000E-02   2.05857637E+09   1.81966616E+09   1.81966616E+09   1.91213566E+09   2.03296047E+09   2.03296047E+09
   1.92000000E-02   2.01616660E+09   1.77146806E+09   1.77146806E+09   1.87125258E+09   1.99111937E+09   1.99111937E+09
   1.94000000E-02   1.97414847E+09   1.72417888E+09   1.72417888E+09   1.83074791E+09   1.94964796E+09   1.94964796E+09
   1.96000000E-02   1.93254393E+09   1.67780418E+09   1.67780418E+09   1.79064521E+09   1.90856917E+09   1.90856917E+09
   1.98000000E-02   1.89137322E+09   1.63234772E+09   1.63234772E+09   1.75096620E+09   1.86790419E+09   1.86790419E+09
   2.00000000E-02   1.85065499E+09   1.58781149E+09   1.58781149E+09   1.71173091E+09   1.82767259E+09   1.82767259E+09
   2.02000000E-02   1.81040634E+09   1.54419593E+09   1.54419593E+09   1.67295769E+09   1.78789238E+09   1.78789238E+09
   2.04000000E-02   1.77064289E+09   1.50149997E+09   1.50149997E+09   1.63466330E+09   1.74858006E+09   1.74858006E+09
   2.06000000E-02   1.73137884E+09   1.45972115E+09   1.45972115E+09   1.59686299E+09   1.70975066E+09   1.70975066E+09
   2.08000000E-02   1.69262702E+09   1.41885576E+09   1.41885576E+09   1.55957053E+09   1.67141785E+09   1.67141785E+09
   2.10000000E-02   1.65439897E+09   1.37889889E+09   1.37889889E+09   1.52279830E+09   1.63359397E+09   1.63359397E+09
   2.12000000E-02   1.61670500E+09   1.33984458E+09   1.33984458E+09   1.48655733E+09   1.59629008E+09   1.59629008E+09
   2.14000000E-02   1.57955421E+09   1.30168583E+09   1.30168583E+09   1.45085739E+09   1.55951603E+09   1.55951603E+09
   2.16000000E-02   1.54295460E+09   1.26441476E+09   1.26441476E+09   1.41570703E+09   1.52328053E+09   1.52328053E+09
   2.18000000E-02   1.50691309E+09   1.22802265E+09   1.22802265E+09   1.38111364E+09   1.48759117E+09   1.48759117E+09
   2.20000000E-02   1.47143556E+09   1.19250004E+09   1.19250004E+09   1.34708352E+09   1.45245449E+09   1.45245449E+09
   2.22000000E-02   1.43652694E+09   1.15783676E+09   1.15783676E+09   1.31362192E+09   1.41787605E+09   1.41787605E+09
   2.24000000E-02   1.40219122E+09   1.12402204E+09   1.12402204E+09   1.28073308E+09   1.38386045E+09   1.38386045E+09
   2.26000000E-02   1.36843154E+09   1.09104455E+09   1.09104455E+09   1.24842032E+09   1.35041137E+09   1.35041137E+09
   2.28000000E-02   1.33525020E+09   1.05889249E+09   1.05889249E+09   1.21668607E+09   1.31753167E+09   1.31753167E+09
   2.30000000E-02   1.30264872E+09   1.02755359E+09   1.02755359E+09   1.18553191E+09   1.28522338E+09   1.28522338E+09
   2.32000000E-02   1.27062788E+09   9.97015233E+08   9.97015233E+08   1.15495862E+09   1.25348778E+09   1.25348778E+09
   2.34000000E-02   1.23918776E+09   9.67264438E+08   9.67264438E+08   1.12496626E+09   1.22232541E+09   1.22232541E+09
   2.36000000E-02   1.20832779E+09   9.38287959E+08   9.38287959E+08   1.09555416E+09   1.19173614E+09   1.19173614E+09
   2.38000000E-02   1.17804678E+09   9.10072299E+08   9.10072299E+08   1.06672099E+09   1.16171921E+09   1.16171921E+09
   2.40000000E-02   1.14834296E+09   8.82603765E+08   8.82603765E+08   1.03846483E+09   1.13227322E+09   1.13227322E+09
   2.42000000E-02   1.11921402E+09   8.55868499E+08   8.55868499E+08   1.01078313E+09   1.10339625E+09   1.10339625E+09
   2.44000000E-02   1.09065713E+09   8.29852515E+08   8.29852515E+08   9.83672841E+08   1.07508582E+09   1.07508582E+09
   2.46000000E-02   1.06266901E+09   8.04541736E+08   8.04541736E+08   9.57130385E+08   1.04733896E+09   1.04733896E+09
   2.48000000E-02   1.03524589E+09   7.79922019E+08   7.79922019E+08   9.31151722E+08   1.02015224E+09   1.02015224E+09
   2.50000000E-02   1.00838364E+09   7.55979190E+08   7.55979190E+08   9.05732371E+08   9.93521782E+08   9.93521782E+08
   2.52000000E-02   9.82077706E+08   7.32699064E+08   7.32699064E+08   8.80867447E+08   9.67443329E+08   9.67443329E+08
   2.54000000E-02   9.56323200E+08   7.10067474E+08   7.10067474E+08   8.56551690E+08   9.41912235E+08   9.41912235E+08
   2.56000000E-02   9.31114897E+08   6.88070294E+08   6.88070294E+08   8.32779497E+08   9.16923512E+08   9.16923512E+08
   2.58000000E-02   9.06447272E+08   6.66693453E+08   6.66693453E+08   8.09544947E+08   8.92471854E+08   8.92471854E+08
   2.60000000E-02   8.82314521E+08   6.45922966E+08   6.45922966E+08   7.86841831E+08   8.68551660E+08   8.68551660E+08
   2.62000000E-02   8.58710587E+08   6.25744938E+08   6.25744938E+08   7.64663676E+08   8.45157060E+08   8.45157060E+08
   2.64000000E-02   8.35629179E+08   6.06145590E+08   6.06145590E+08   7.43003771E+08   8.22281939E+08   8.22281939E+08
   2.66000000E-02   8.13063797E+08   5.87111270E+08   5.87111270E+08   7.21855186E+08   7.99919955E+08   7.99919955E+08
   2.68000000E-02   7.91007750E+08   5.68628465E+08   5.68628465E+08   7.01210801E+08   7.78064566E+08   7.78064566E+08
   2.70000000E-02   7.69454177E+08   5.50683814E+08   5.50683814E+08   6.81063322E+08   7.56709046E+08   7.56709046E+08
   2.72000000E-02   7.48396063E+08   5.33264120E+08   5.33264120E+08   6.61405303E+08   7.35846506E+08   7.35846506E+08
   2.74000000E-02   7.27826261E+08   5.16356356E+08   5.16356356E+08   6.42229167E+08   7.15469910E+08   7.15469910E+08
   2.76000000E-02   7.07737504E+08   4.99947679E+08   4.99947679E+08   6.23527218E+08   6.95572094E+08   6.95572094E+08
   2.78000000E-02   6.88122423E+08   4.84025431E+08   4.84025431E+08   6.05291665E+08   6.76145784E+08   6.76145784E+08
   2.80000000E-02   6.68973562E+08   4.68577151E+08   4.68577151E+08   5.87514634E+08   6.57183607E+08   6.57183607E+08
   2.82000000E-02   6.50283392E+08   4.53590577E+08   4.53590577E+08   5.70188185E+08   6.38678111E+08   6.38678111E+08
   2.84000000E-02   6.32044324E+08   4.39053655E+08   4.39053655E+08   5.53304325E+08   6.20621774E+08   6.20621774E+08
   2.86000000E-02   6.14248721E+08   4.24954539E+08   4.24954539E+08   5.36855024E+08   6.03007022E+08   6.03007022E+08
   2.88000000E-02   5.96888912E+08   4.11281597E+08   4.11281597E+08   5.20832223E+08   5.85826236E+08   5.85826236E+08
   2.90000000E-02   5.79957202E+08   3.98023412E+08   3.98023412E+08   5.05227852E+08   5.69071769E+08   5.69071769E+08
   2.92000000E-02   5.63445883E+08   3.85168785E+08   3.85168785E+08   4.90033839E+08   5.52735955E+08   5.52735955E+08
   2.94000000E-02   5.47347242E+08   3.72706740E+08   3.72706740E+08   4.75242116E+08   5.36811117E+08   5.36811117E+08
   2.96000000E-02   5.31653573E+08   3.60626519E+08   3.60626519E+08   4.60844638E+08   5.21289580E+08   5.21289580E+08
   2.98000000E-02   5.16357186E+08   3.48917586E+08   3.48917586E+08   4.46833383E+08   5.06163680E+08   5.06163680E+08
   3.00000000E-02   5.01450411E+08   3.37569629E+08   3.37569629E+08   4.33200367E+08   4.91425770E+08   4.91425770E+08
   3.02000000E-02   4.86925611E+08   3.26572557E+08   3.26572557E+08   4.19937649E+08   4.77068230E+08   4.77068230E+08
   3.04000000E-02   4.72775185E+08   3.15916498E+08   3.15916498E+08   4.07037339E+08   4.63083477E+08   4.63083477E+08
   3.06000000E-02   4.58991579E+08   3.05591803E+08   3.05591803E+08   3.94491604E+08   4.49463965E+08   4.49463965E+08
   3.08000000E-02   4.45567287E+08   2.95589041E+08   2.95589041E+08   3.82292678E+08   4.36202198E+08   4.36202198E+08
   3.10000000E-02   4.32494860E+08   2.85898999E+08   2.85898999E+08   3.70432862E+08   4.23290733E+08   4.23290733E+08
   3.12000000E-02   4.19766911E+08   2.76512679E+08   2.76512679E+08   3.58904536E+08   4.10722187E+08   4.10722187E+08
   3.14000000E-02   4.07376120E+08   2.67421298E+08   2.67421298E+08   3.47700159E+08   3.98489242E+08   3.98489242E+08
   3.16000000E-02   3.95315237E+08   2.58616283E+08   2.58616283E+08   3.36812274E+08   3.86584647E+08   3.86584647E+08
   3.18000000E-02   3.83577089E+08   2.50089273E+08   2.50089273E+08   3.26233515E+08   3.75001226E+08   3.75001226E+08
   3.20000000E-02   3.72154579E+08   2.41832109E+08   2.41832109E+08   3.15956608E+08   3.63731881E+08   3.63731881E+08
   3.22000000E-02   3.61040696E+08   2.33836840E+08   2.33836840E+08   3.05974377E+08   3.52769596E+08   3.52769596E+08
   3.24000000E-02   3.50228512E+08   2.26095715E+08   2.26095715E+08   2.96279742E+08   3.42107437E+08   3.42107437E+08
   3.26000000E-02   3.39711188E+08   2.18601179E+08   2.18601179E+08   2.86865729E+08   3.31738561E+08   3.31738561E+08
   3.28000000E-02   3.29481978E+08   2.11345874E+08   2.11345874E+08   2.77725465E+08   3.21656212E+08   3.21656212E+08
