# TBinMid=-0.045 ssec TBinWidth=0.01 ss EBinWidth=0.2MeV Fluence at Earth for this timebin in neutrinos per cm^2
# E(GeV)	NuE	NuMu	NuTau	aNuE	aNuMu	aNuTau
   1.38589050E-13   2.34373390E-38   5.16000793E-37   5.16000793E-37   0.00000000E+00   0.00000000E+00   0.00000000E+00
   2.00000000E-04   4.15215885E+02   9.14146975E+03   9.14146975E+03   0.00000000E+00   0.00000000E+00   0.00000000E+00
   4.00000000E-04   8.88620154E+03   1.95640257E+05   1.95640257E+05   0.00000000E+00   0.00000000E+00   0.00000000E+00
   6.00000000E-04   5.02604746E+04   1.10654391E+06   1.10654391E+06   0.00000000E+00   0.00000000E+00   0.00000000E+00
   8.00000000E-04   1.64168282E+05   3.61435927E+06   3.61435927E+06   0.00000000E+00   0.00000000E+00   0.00000000E+00
   1.00000000E-03   3.96241180E+05   8.72371914E+06   8.72371914E+06   0.00000000E+00   0.00000000E+00   0.00000000E+00
   1.20000000E-03   7.89109500E+05   1.73731808E+07   1.73731808E+07   0.00000000E+00   0.00000000E+00   0.00000000E+00
   1.40000000E-03   1.37551914E+06   3.02836838E+07   3.02836838E+07   0.00000000E+00   0.00000000E+00   0.00000000E+00
   1.60000000E-03   2.17421851E+06   4.78679969E+07   4.78679969E+07   0.00000000E+00   0.00000000E+00   0.00000000E+00
   1.80000000E-03   3.18844718E+06   7.01974431E+07   7.01974431E+07   0.00000000E+00   0.00000000E+00   0.00000000E+00
   2.00000000E-03   4.40649993E+06   9.70143179E+07   9.70143179E+07   0.00000000E+00   0.00000000E+00   0.00000000E+00
   2.20000000E-03   5.80373764E+06   1.27776162E+08   1.27776162E+08   0.00000000E+00   0.00000000E+00   0.00000000E+00
   2.40000000E-03   7.34545006E+06   1.61718788E+08   1.61718788E+08   0.00000000E+00   0.00000000E+00   0.00000000E+00
   2.60000000E-03   8.99007330E+06   1.97927117E+08   1.97927117E+08   0.00000000E+00   0.00000000E+00   0.00000000E+00
   2.80000000E-03   1.06923836E+07   2.35405495E+08   2.35405495E+08   0.00000000E+00   0.00000000E+00   0.00000000E+00
   3.00000000E-03   1.24064060E+07   2.73141731E+08   2.73141731E+08   0.00000000E+00   0.00000000E+00   0.00000000E+00
   3.20000000E-03   1.40878790E+07   3.10161351E+08   3.10161351E+08   0.00000000E+00   0.00000000E+00   0.00000000E+00
   3.40000000E-03   1.56961969E+07   3.45570375E+08   3.45570375E+08   0.00000000E+00   0.00000000E+00   0.00000000E+00
   3.60000000E-03   1.71958168E+07   3.78586285E+08   3.78586285E+08   0.00000000E+00   0.00000000E+00   0.00000000E+00
   3.80000000E-03   1.85571579E+07   4.08557822E+08   4.08557822E+08   0.00000000E+00   0.00000000E+00   0.00000000E+00
   4.00000000E-03   1.97570490E+07   4.34974848E+08   4.34974848E+08   0.00000000E+00   0.00000000E+00   0.00000000E+00
   4.20000000E-03   2.07787978E+07   4.57469858E+08   4.57469858E+08   0.00000000E+00   0.00000000E+00   0.00000000E+00
   4.40000000E-03   2.16119565E+07   4.75812832E+08   4.75812832E+08   0.00000000E+00   0.00000000E+00   0.00000000E+00
   4.60000000E-03   2.22518613E+07   4.89901095E+08   4.89901095E+08   0.00000000E+00   0.00000000E+00   0.00000000E+00
   4.80000000E-03   2.26990154E+07   4.99745724E+08   4.99745724E+08   0.00000000E+00   0.00000000E+00   0.00000000E+00
   5.00000000E-03   2.29583760E+07   5.05455855E+08   5.05455855E+08   0.00000000E+00   0.00000000E+00   0.00000000E+00
   5.20000000E-03   2.30385977E+07   5.07222031E+08   5.07222031E+08   0.00000000E+00   0.00000000E+00   0.00000000E+00
   5.40000000E-03   2.29512736E+07   5.05299487E+08   5.05299487E+08   0.00000000E+00   0.00000000E+00   0.00000000E+00
   5.60000000E-03   2.27102058E+07   4.99992092E+08   4.99992092E+08   0.00000000E+00   0.00000000E+00   0.00000000E+00
   5.80000000E-03   2.23307280E+07   4.91637440E+08   4.91637440E+08   0.00000000E+00   0.00000000E+00   0.00000000E+00
   6.00000000E-03   2.18290966E+07   4.80593430E+08   4.80593430E+08   0.00000000E+00   0.00000000E+00   0.00000000E+00
   6.20000000E-03   2.12219574E+07   4.67226541E+08   4.67226541E+08   0.00000000E+00   0.00000000E+00   0.00000000E+00
   6.40000000E-03   2.05258936E+07   4.51901871E+08   4.51901871E+08   0.00000000E+00   0.00000000E+00   0.00000000E+00
   6.60000000E-03   1.97570529E+07   4.34974932E+08   4.34974932E+08   0.00000000E+00   0.00000000E+00   0.00000000E+00
   6.80000000E-03   1.89308518E+07   4.16785137E+08   4.16785137E+08   0.00000000E+00   0.00000000E+00   0.00000000E+00
   7.00000000E-03   1.80617505E+07   3.97650841E+08   3.97650841E+08   0.00000000E+00   0.00000000E+00   0.00000000E+00
   7.20000000E-03   1.71630915E+07   3.77865798E+08   3.77865798E+08   0.00000000E+00   0.00000000E+00   0.00000000E+00
   7.40000000E-03   1.62469954E+07   3.57696856E+08   3.57696856E+08   0.00000000E+00   0.00000000E+00   0.00000000E+00
   7.60000000E-03   1.53243042E+07   3.37382716E+08   3.37382716E+08   0.00000000E+00   0.00000000E+00   0.00000000E+00
   7.80000000E-03   1.44045656E+07   3.17133582E+08   3.17133582E+08   0.00000000E+00   0.00000000E+00   0.00000000E+00
   8.00000000E-03   1.34960504E+07   2.97131544E+08   2.97131544E+08   0.00000000E+00   0.00000000E+00   0.00000000E+00
   8.20000000E-03   1.26057958E+07   2.77531534E+08   2.77531534E+08   0.00000000E+00   0.00000000E+00   0.00000000E+00
   8.40000000E-03   1.17396686E+07   2.58462717E+08   2.58462717E+08   0.00000000E+00   0.00000000E+00   0.00000000E+00
   8.60000000E-03   1.09024431E+07   2.40030206E+08   2.40030206E+08   0.00000000E+00   0.00000000E+00   0.00000000E+00
   8.80000000E-03   1.00978883E+07   2.22316978E+08   2.22316978E+08   0.00000000E+00   0.00000000E+00   0.00000000E+00
   9.00000000E-03   9.32886096E+06   2.05385929E+08   2.05385929E+08   0.00000000E+00   0.00000000E+00   0.00000000E+00
   9.20000000E-03   8.59740054E+06   1.89281961E+08   1.89281961E+08   0.00000000E+00   0.00000000E+00   0.00000000E+00
   9.40000000E-03   7.90482424E+06   1.74034073E+08   1.74034073E+08   0.00000000E+00   0.00000000E+00   0.00000000E+00
   9.60000000E-03   7.25181909E+06   1.59657391E+08   1.59657391E+08   0.00000000E+00   0.00000000E+00   0.00000000E+00
   9.80000000E-03   6.63853003E+06   1.46155106E+08   1.46155106E+08   0.00000000E+00   0.00000000E+00   0.00000000E+00
   1.00000000E-02   6.06464264E+06   1.33520295E+08   1.33520295E+08   0.00000000E+00   0.00000000E+00   0.00000000E+00
   1.02000000E-02   5.52945985E+06   1.21737611E+08   1.21737611E+08   0.00000000E+00   0.00000000E+00   0.00000000E+00
   1.04000000E-02   5.03197201E+06   1.10784827E+08   1.10784827E+08   0.00000000E+00   0.00000000E+00   0.00000000E+00
   1.06000000E-02   4.57092022E+06   1.00634225E+08   1.00634225E+08   0.00000000E+00   0.00000000E+00   0.00000000E+00
   1.08000000E-02   4.14485285E+06   9.12538473E+07   9.12538473E+07   0.00000000E+00   0.00000000E+00   0.00000000E+00
   1.10000000E-02   3.75217546E+06   8.26085893E+07   8.26085893E+07   0.00000000E+00   0.00000000E+00   0.00000000E+00
   1.12000000E-02   3.39119434E+06   7.46611622E+07   7.46611622E+07   0.00000000E+00   0.00000000E+00   0.00000000E+00
   1.14000000E-02   3.06015406E+06   6.73729180E+07   6.73729180E+07   0.00000000E+00   0.00000000E+00   0.00000000E+00
   1.16000000E-02   2.75726945E+06   6.07045545E+07   6.07045545E+07   0.00000000E+00   0.00000000E+00   0.00000000E+00
   1.18000000E-02   2.48075250E+06   5.46167061E+07   5.46167061E+07   0.00000000E+00   0.00000000E+00   0.00000000E+00
   1.20000000E-02   2.22883454E+06   4.90704337E+07   4.90704337E+07   0.00000000E+00   0.00000000E+00   0.00000000E+00
   1.22000000E-02   1.99978435E+06   4.40276223E+07   4.40276223E+07   0.00000000E+00   0.00000000E+00   0.00000000E+00
   1.24000000E-02   1.79192249E+06   3.94512970E+07   3.94512970E+07   0.00000000E+00   0.00000000E+00   0.00000000E+00
   1.26000000E-02   1.60363240E+06   3.53058676E+07   3.53058676E+07   0.00000000E+00   0.00000000E+00   0.00000000E+00
   1.28000000E-02   1.43336872E+06   3.15573109E+07   3.15573109E+07   0.00000000E+00   0.00000000E+00   0.00000000E+00
   1.30000000E-02   1.27966307E+06   2.81732990E+07   2.81732990E+07   0.00000000E+00   0.00000000E+00   0.00000000E+00
   1.32000000E-02   1.14112786E+06   2.51232822E+07   2.51232822E+07   0.00000000E+00   0.00000000E+00   0.00000000E+00
   1.34000000E-02   1.01645824E+06   2.23785328E+07   2.23785328E+07   0.00000000E+00   0.00000000E+00   0.00000000E+00
   1.36000000E-02   9.04432691E+05   1.99121575E+07   1.99121575E+07   0.00000000E+00   0.00000000E+00   0.00000000E+00
   1.38000000E-02   8.03912353E+05   1.76990831E+07   1.76990831E+07   0.00000000E+00   0.00000000E+00   0.00000000E+00
   1.40000000E-02   7.13839448E+05   1.57160214E+07   1.57160214E+07   0.00000000E+00   0.00000000E+00   0.00000000E+00
   1.42000000E-02   6.33234912E+05   1.39414170E+07   1.39414170E+07   0.00000000E+00   0.00000000E+00   0.00000000E+00
   1.44000000E-02   5.61195455E+05   1.23553830E+07   1.23553830E+07   0.00000000E+00   0.00000000E+00   0.00000000E+00
   1.46000000E-02   4.96890204E+05   1.09396267E+07   1.09396267E+07   0.00000000E+00   0.00000000E+00   0.00000000E+00
   1.48000000E-02   4.39557037E+05   9.67736907E+06   9.67736907E+06   0.00000000E+00   0.00000000E+00   0.00000000E+00
   1.50000000E-02   3.88498732E+05   8.55325998E+06   8.55325998E+06   0.00000000E+00   0.00000000E+00   0.00000000E+00
   1.52000000E-02   3.43079016E+05   7.55329109E+06   7.55329109E+06   0.00000000E+00   0.00000000E+00   0.00000000E+00
   1.54000000E-02   3.02718584E+05   6.66470836E+06   6.66470836E+06   0.00000000E+00   0.00000000E+00   0.00000000E+00
   1.56000000E-02   2.66891162E+05   5.87592520E+06   5.87592520E+06   0.00000000E+00   0.00000000E+00   0.00000000E+00
   1.58000000E-02   2.35119640E+05   5.17643751E+06   5.17643751E+06   0.00000000E+00   0.00000000E+00   0.00000000E+00
   1.60000000E-02   2.06972337E+05   4.55674128E+06   4.55674128E+06   0.00000000E+00   0.00000000E+00   0.00000000E+00
   1.62000000E-02   1.82059401E+05   4.00825346E+06   4.00825346E+06   0.00000000E+00   0.00000000E+00   0.00000000E+00
   1.64000000E-02   1.60029384E+05   3.52323652E+06   3.52323652E+06   0.00000000E+00   0.00000000E+00   0.00000000E+00
   1.66000000E-02   1.40565997E+05   3.09472699E+06   3.09472699E+06   0.00000000E+00   0.00000000E+00   0.00000000E+00
   1.68000000E-02   1.23385052E+05   2.71646814E+06   2.71646814E+06   0.00000000E+00   0.00000000E+00   0.00000000E+00
   1.70000000E-02   1.08231601E+05   2.38284695E+06   2.38284695E+06   0.00000000E+00   0.00000000E+00   0.00000000E+00
   1.72000000E-02   9.48772608E+04   2.08883533E+06   2.08883533E+06   0.00000000E+00   0.00000000E+00   0.00000000E+00
   1.74000000E-02   8.31177404E+04   1.82993555E+06   1.82993555E+06   0.00000000E+00   0.00000000E+00   0.00000000E+00
   1.76000000E-02   7.27705442E+04   1.60212977E+06   1.60212977E+06   0.00000000E+00   0.00000000E+00   0.00000000E+00
   1.78000000E-02   6.36728601E+04   1.40183347E+06   1.40183347E+06   0.00000000E+00   0.00000000E+00   0.00000000E+00
   1.80000000E-02   5.56796186E+04   1.22585279E+06   1.22585279E+06   0.00000000E+00   0.00000000E+00   0.00000000E+00
   1.82000000E-02   4.86617147E+04   1.07134531E+06   1.07134531E+06   0.00000000E+00   0.00000000E+00   0.00000000E+00
   1.84000000E-02   4.25043844E+04   9.35784392E+05   9.35784392E+05   0.00000000E+00   0.00000000E+00   0.00000000E+00
   1.86000000E-02   3.71057257E+04   8.16926523E+05   8.16926523E+05   0.00000000E+00   0.00000000E+00   0.00000000E+00
   1.88000000E-02   3.23753543E+04   7.12781791E+05   7.12781791E+05   0.00000000E+00   0.00000000E+00   0.00000000E+00
   1.90000000E-02   2.82331853E+04   6.21587033E+05   6.21587033E+05   0.00000000E+00   0.00000000E+00   0.00000000E+00
   1.92000000E-02   2.46083307E+04   5.41781563E+05   5.41781563E+05   0.00000000E+00   0.00000000E+00   0.00000000E+00
   1.94000000E-02   2.14381040E+04   4.71985263E+05   4.71985263E+05   0.00000000E+00   0.00000000E+00   0.00000000E+00
   1.96000000E-02   1.86671230E+04   4.10978835E+05   4.10978835E+05   0.00000000E+00   0.00000000E+00   0.00000000E+00
   1.98000000E-02   1.62465038E+04   3.57686033E+05   3.57686033E+05   0.00000000E+00   0.00000000E+00   0.00000000E+00
   2.00000000E-02   1.41331352E+04   3.11157721E+05   3.11157721E+05   0.00000000E+00   0.00000000E+00   0.00000000E+00
   2.02000000E-02   1.22890303E+04   2.70557565E+05   2.70557565E+05   0.00000000E+00   0.00000000E+00   0.00000000E+00
   2.04000000E-02   1.06807441E+04   2.35149237E+05   2.35149237E+05   0.00000000E+00   0.00000000E+00   0.00000000E+00
   2.06000000E-02   9.27885445E+03   2.04284976E+05   2.04284976E+05   0.00000000E+00   0.00000000E+00   0.00000000E+00
   2.08000000E-02   8.05749826E+03   1.77395373E+05   1.77395373E+05   0.00000000E+00   0.00000000E+00   0.00000000E+00
   2.10000000E-02   6.99395782E+03   1.53980269E+05   1.53980269E+05   0.00000000E+00   0.00000000E+00   0.00000000E+00
   2.12000000E-02   6.06829296E+03   1.33600661E+05   1.33600661E+05   0.00000000E+00   0.00000000E+00   0.00000000E+00
   2.14000000E-02   5.26301388E+03   1.15871487E+05   1.15871487E+05   0.00000000E+00   0.00000000E+00   0.00000000E+00
   2.16000000E-02   4.56279057E+03   1.00455241E+05   1.00455241E+05   0.00000000E+00   0.00000000E+00   0.00000000E+00
   2.18000000E-02   3.95419511E+03   8.70562912E+04   8.70562912E+04   0.00000000E+00   0.00000000E+00   0.00000000E+00
   2.20000000E-02   3.42547336E+03   7.54158552E+04   7.54158552E+04   0.00000000E+00   0.00000000E+00   0.00000000E+00
   2.22000000E-02   2.96634279E+03   6.53075518E+04   6.53075518E+04   0.00000000E+00   0.00000000E+00   0.00000000E+00
   2.24000000E-02   2.56781386E+03   5.65334652E+04   5.65334652E+04   0.00000000E+00   0.00000000E+00   0.00000000E+00
   2.26000000E-02   2.22203209E+03   4.89206697E+04   4.89206697E+04   0.00000000E+00   0.00000000E+00   0.00000000E+00
   2.28000000E-02   1.92213879E+03   4.23181633E+04   4.23181633E+04   0.00000000E+00   0.00000000E+00   0.00000000E+00
   2.30000000E-02   1.66214822E+03   3.65941628E+04   3.65941628E+04   0.00000000E+00   0.00000000E+00   0.00000000E+00
   2.32000000E-02   1.43683939E+03   3.16337220E+04   3.16337220E+04   0.00000000E+00   0.00000000E+00   0.00000000E+00
   2.34000000E-02   1.24166084E+03   2.73366347E+04   2.73366347E+04   0.00000000E+00   0.00000000E+00   0.00000000E+00
   2.36000000E-02   1.07264683E+03   2.36155910E+04   2.36155910E+04   0.00000000E+00   0.00000000E+00   0.00000000E+00
   2.38000000E-02   9.26343792E+02   2.03945563E+04   2.03945563E+04   0.00000000E+00   0.00000000E+00   0.00000000E+00
   2.40000000E-02   7.99745689E+02   1.76073491E+04   1.76073491E+04   0.00000000E+00   0.00000000E+00   0.00000000E+00
   2.42000000E-02   6.90237287E+02   1.51963918E+04   1.51963918E+04   0.00000000E+00   0.00000000E+00   0.00000000E+00
   2.44000000E-02   5.95544456E+02   1.31116169E+04   1.31116169E+04   0.00000000E+00   0.00000000E+00   0.00000000E+00
   2.46000000E-02   5.13690599E+02   1.13095073E+04   1.13095073E+04   0.00000000E+00   0.00000000E+00   0.00000000E+00
   2.48000000E-02   4.42958515E+02   9.75225663E+03   9.75225663E+03   0.00000000E+00   0.00000000E+00   0.00000000E+00
   2.50000000E-02   3.81857021E+02   8.40703483E+03   8.40703483E+03   0.00000000E+00   0.00000000E+00   0.00000000E+00
   2.52000000E-02   3.29091770E+02   7.24534531E+03   7.24534531E+03   0.00000000E+00   0.00000000E+00   0.00000000E+00
   2.54000000E-02   2.83539751E+02   6.24246363E+03   6.24246363E+03   0.00000000E+00   0.00000000E+00   0.00000000E+00
   2.56000000E-02   2.44227012E+02   5.37694710E+03   5.37694710E+03   0.00000000E+00   0.00000000E+00   0.00000000E+00
   2.58000000E-02   2.10309224E+02   4.63020679E+03   4.63020679E+03   0.00000000E+00   0.00000000E+00   0.00000000E+00
   2.60000000E-02   1.81054718E+02   3.98613417E+03   3.98613417E+03   0.00000000E+00   0.00000000E+00   0.00000000E+00
   2.62000000E-02   1.55829703E+02   3.43077559E+03   3.43077559E+03   0.00000000E+00   0.00000000E+00   0.00000000E+00
   2.64000000E-02   1.34085385E+02   2.95204864E+03   2.95204864E+03   0.00000000E+00   0.00000000E+00   0.00000000E+00
   2.66000000E-02   1.15346739E+02   2.53949515E+03   2.53949515E+03   0.00000000E+00   0.00000000E+00   0.00000000E+00
   2.68000000E-02   9.92027516E+01   2.18406614E+03   2.18406614E+03   0.00000000E+00   0.00000000E+00   0.00000000E+00
   2.70000000E-02   8.52979174E+01   1.87793473E+03   1.87793473E+03   0.00000000E+00   0.00000000E+00   0.00000000E+00
   2.72000000E-02   7.33248533E+01   1.61433354E+03   1.61433354E+03   0.00000000E+00   0.00000000E+00   0.00000000E+00
   2.74000000E-02   6.30178755E+01   1.38741321E+03   1.38741321E+03   0.00000000E+00   0.00000000E+00   0.00000000E+00
   2.76000000E-02   5.41474199E+01   1.19211962E+03   1.19211962E+03   0.00000000E+00   0.00000000E+00   0.00000000E+00
   2.78000000E-02   4.65151974E+01   1.02408719E+03   1.02408719E+03   0.00000000E+00   0.00000000E+00   0.00000000E+00
   2.80000000E-02   3.99499887E+01   8.79546344E+02   8.79546344E+02   0.00000000E+00   0.00000000E+00   0.00000000E+00
   2.82000000E-02   3.43039958E+01   7.55243119E+02   7.55243119E+02   0.00000000E+00   0.00000000E+00   0.00000000E+00
   2.84000000E-02   2.94496778E+01   6.48369555E+02   6.48369555E+02   0.00000000E+00   0.00000000E+00   0.00000000E+00
   2.86000000E-02   2.52770081E+01   5.56503287E+02   5.56503287E+02   0.00000000E+00   0.00000000E+00   0.00000000E+00
   2.88000000E-02   2.16910980E+01   4.77555226E+02   4.77555226E+02   0.00000000E+00   0.00000000E+00   0.00000000E+00
   2.90000000E-02   1.86101376E+01   4.09724232E+02   4.09724232E+02   0.00000000E+00   0.00000000E+00   0.00000000E+00
   2.92000000E-02   1.59636138E+01   3.51457875E+02   3.51457875E+02   0.00000000E+00   0.00000000E+00   0.00000000E+00
   2.94000000E-02   1.36907675E+01   3.01418470E+02   3.01418470E+02   0.00000000E+00   0.00000000E+00   0.00000000E+00
   2.96000000E-02   1.17392586E+01   2.58453690E+02   2.58453690E+02   0.00000000E+00   0.00000000E+00   0.00000000E+00
   2.98000000E-02   1.00640122E+01   2.21571155E+02   2.21571155E+02   0.00000000E+00   0.00000000E+00   0.00000000E+00
   3.00000000E-02   8.62622004E+00   1.89916457E+02   1.89916457E+02   0.00000000E+00   0.00000000E+00   0.00000000E+00
   3.02000000E-02   7.39247837E+00   1.62754172E+02   1.62754172E+02   0.00000000E+00   0.00000000E+00   0.00000000E+00
   3.04000000E-02   6.33404257E+00   1.39451453E+02   1.39451453E+02   0.00000000E+00   0.00000000E+00   0.00000000E+00
   3.06000000E-02   5.42618362E+00   1.19463863E+02   1.19463863E+02   0.00000000E+00   0.00000000E+00   0.00000000E+00
   3.08000000E-02   4.64763237E+00   1.02323134E+02   1.02323134E+02   0.00000000E+00   0.00000000E+00   0.00000000E+00
   3.10000000E-02   3.98009998E+00   8.76266176E+01   8.76266176E+01   0.00000000E+00   0.00000000E+00   0.00000000E+00
   3.12000000E-02   3.40786405E+00   7.50281655E+01   7.50281655E+01   0.00000000E+00   0.00000000E+00   0.00000000E+00
   3.14000000E-02   2.91741168E+00   6.42302755E+01   6.42302755E+01   0.00000000E+00   0.00000000E+00   0.00000000E+00
   3.16000000E-02   2.49713166E+00   5.49773126E+01   5.49773126E+01   0.00000000E+00   0.00000000E+00   0.00000000E+00
   3.18000000E-02   2.13704908E+00   4.70496679E+01   4.70496679E+01   0.00000000E+00   0.00000000E+00   0.00000000E+00
   3.20000000E-02   1.82859668E+00   4.02587230E+01   4.02587230E+01   0.00000000E+00   0.00000000E+00   0.00000000E+00
   3.22000000E-02   1.56441785E+00   3.44425129E+01   3.44425129E+01   0.00000000E+00   0.00000000E+00   0.00000000E+00
   3.24000000E-02   1.33819685E+00   2.94619895E+01   2.94619895E+01   0.00000000E+00   0.00000000E+00   0.00000000E+00
   3.26000000E-02   1.14451275E+00   2.51978045E+01   2.51978045E+01   0.00000000E+00   0.00000000E+00   0.00000000E+00
   3.28000000E-02   9.78713602E-01   2.15475398E+01   2.15475398E+01   0.00000000E+00   0.00000000E+00   0.00000000E+00
