# TBinMid=1.55 ssec TBinWidth=0.1 ss EBinWidth=0.2MeV Fluence at Earth for this timebin in neutrinos per cm^2
# E(GeV)	NuE	NuMu	NuTau	aNuE	aNuMu	aNuTau
   1.38589050E-13   5.47685185E-15   2.86293144E-15   2.86293144E-15   1.78807611E-15   4.70758320E-15   4.70758320E-15
   2.00000000E-04   4.32768277E+06   3.55014728E+06   3.55014728E+06   2.26197612E+06   3.87189298E+06   3.87189298E+06
   4.00000000E-04   2.02769826E+07   1.86644442E+07   1.86644442E+07   1.16787909E+07   1.83206685E+07   1.83206685E+07
   6.00000000E-04   4.91644569E+07   4.86674692E+07   4.86674692E+07   3.01291700E+07   4.47214786E+07   4.47214786E+07
   8.00000000E-04   9.10095437E+07   9.49445657E+07   9.49445657E+07   5.83994863E+07   8.32237379E+07   8.32237379E+07
   1.00000000E-03   1.45298866E+08   1.57823208E+08   1.57823208E+08   9.67153434E+07   1.33456623E+08   1.33456623E+08
   1.20000000E-03   2.11238038E+08   2.36946991E+08   2.36946991E+08   1.44948011E+08   1.94765793E+08   1.94765793E+08
   1.40000000E-03   2.87877146E+08   3.31497780E+08   3.31497780E+08   2.02729949E+08   2.66333020E+08   2.66333020E+08
   1.60000000E-03   3.74184010E+08   4.40345093E+08   4.40345093E+08   2.69529389E+08   3.47246979E+08   3.47246979E+08
   1.80000000E-03   4.69090715E+08   5.62152974E+08   5.62152974E+08   3.44702317E+08   4.36548864E+08   4.36548864E+08
   2.00000000E-03   5.71524619E+08   6.95459088E+08   6.95459088E+08   4.27530409E+08   5.33263271E+08   5.33263271E+08
   2.20000000E-03   6.80429578E+08   8.38734329E+08   8.38734329E+08   5.17249500E+08   6.36419710E+08   6.36419710E+08
   2.40000000E-03   7.94780613E+08   9.90428105E+08   9.90428105E+08   6.13071330E+08   7.45067831E+08   7.45067831E+08
   2.60000000E-03   9.13594034E+08   1.14900277E+09   1.14900277E+09   7.14200305E+08   8.58288206E+08   8.58288206E+08
   2.80000000E-03   1.03593427E+09   1.31295966E+09   1.31295966E+09   8.19846480E+08   9.75199910E+08   9.75199910E+08
   3.00000000E-03   1.16091833E+09   1.48085844E+09   1.48085844E+09   9.29235576E+08   1.09496572E+09   1.09496572E+09
   3.20000000E-03   1.28771840E+09   1.65133133E+09   1.65133133E+09   1.04161669E+09   1.21679554E+09   1.21679554E+09
   3.40000000E-03   1.41556318E+09   1.82309304E+09   1.82309304E+09   1.15626811E+09   1.33994841E+09   1.33994841E+09
   3.60000000E-03   1.54373816E+09   1.99494733E+09   1.99494733E+09   1.27250168E+09   1.46373353E+09   1.46373353E+09
   3.80000000E-03   1.67158507E+09   2.16579101E+09   2.16579101E+09   1.38966584E+09   1.58751043E+09   1.58751043E+09
   4.00000000E-03   1.79850086E+09   2.33461564E+09   2.33461564E+09   1.50714783E+09   1.71068855E+09   1.71068855E+09
   4.20000000E-03   1.92393612E+09   2.50050763E+09   2.50050763E+09   1.62437492E+09   1.83272627E+09   1.83272627E+09
   4.40000000E-03   2.04739323E+09   2.66264692E+09   2.66264692E+09   1.74081508E+09   1.95312967E+09   1.95312967E+09
   4.60000000E-03   2.16842433E+09   2.82030469E+09   2.82030469E+09   1.85597709E+09   2.07145094E+09   2.07145094E+09
   4.80000000E-03   2.28662900E+09   2.97284016E+09   2.97284016E+09   1.96941019E+09   2.18728665E+09   2.18728665E+09
   5.00000000E-03   2.40165195E+09   3.11969689E+09   3.11969689E+09   2.08070340E+09   2.30027576E+09   2.30027576E+09
   5.20000000E-03   2.51318062E+09   3.26039860E+09   3.26039860E+09   2.18948456E+09   2.41009772E+09   2.41009772E+09
   5.40000000E-03   2.62094269E+09   3.39454464E+09   3.39454464E+09   2.29541914E+09   2.51647031E+09   2.51647031E+09
   5.60000000E-03   2.72470373E+09   3.52180537E+09   3.52180537E+09   2.39820886E+09   2.61914759E+09   2.61914759E+09
   5.80000000E-03   2.82426471E+09   3.64191734E+09   3.64191734E+09   2.49759024E+09   2.71791779E+09   2.71791779E+09
   6.00000000E-03   2.91945973E+09   3.75467857E+09   3.75467857E+09   2.59333298E+09   2.81260122E+09   2.81260122E+09
   6.20000000E-03   3.01015367E+09   3.85994376E+09   3.85994376E+09   2.68523835E+09   2.90304823E+09   2.90304823E+09
   6.40000000E-03   3.09623998E+09   3.95761963E+09   3.95761963E+09   2.77313747E+09   2.98913716E+09   2.98913716E+09
   6.60000000E-03   3.17763854E+09   4.04766038E+09   4.04766038E+09   2.85688964E+09   3.07077247E+09   3.07077247E+09
   6.80000000E-03   3.25429361E+09   4.13006337E+09   4.13006337E+09   2.93638061E+09   3.14788275E+09   3.14788275E+09
   7.00000000E-03   3.32617182E+09   4.20486482E+09   4.20486482E+09   3.01152090E+09   3.22041897E+09   3.22041897E+09
   7.20000000E-03   3.39326035E+09   4.27213591E+09   4.27213591E+09   3.08224412E+09   3.28835266E+09   3.28835266E+09
   7.40000000E-03   3.45556506E+09   4.33197890E+09   4.33197890E+09   3.14850537E+09   3.35167430E+09   3.35167430E+09
   7.60000000E-03   3.51310886E+09   4.38452354E+09   4.38452354E+09   3.21027962E+09   3.41039167E+09   3.41039167E+09
   7.80000000E-03   3.56593009E+09   4.42992375E+09   4.42992375E+09   3.26756018E+09   3.46452834E+09   3.46452834E+09
   8.00000000E-03   3.61408097E+09   4.46835439E+09   4.46835439E+09   3.32035724E+09   3.51412221E+09   3.51412221E+09
   8.20000000E-03   3.65762622E+09   4.50000837E+09   4.50000837E+09   3.36869639E+09   3.55922416E+09   3.55922416E+09
   8.40000000E-03   3.69664166E+09   4.52509386E+09   4.52509386E+09   3.41261729E+09   3.59989672E+09   3.59989672E+09
   8.60000000E-03   3.73121301E+09   4.54383176E+09   4.54383176E+09   3.45217235E+09   3.63621288E+09   3.63621288E+09
   8.80000000E-03   3.76143470E+09   4.55645340E+09   4.55645340E+09   3.48742549E+09   3.66825492E+09   3.66825492E+09
   9.00000000E-03   3.78740874E+09   4.56319836E+09   4.56319836E+09   3.51845095E+09   3.69611334E+09   3.69611334E+09
   9.20000000E-03   3.80924372E+09   4.56431248E+09   4.56431248E+09   3.54533217E+09   3.71988583E+09   3.71988583E+09
   9.40000000E-03   3.82705386E+09   4.56004614E+09   4.56004614E+09   3.56816074E+09   3.73967635E+09   3.73967635E+09
   9.60000000E-03   3.84095812E+09   4.55065255E+09   4.55065255E+09   3.58703541E+09   3.75559424E+09   3.75559424E+09
   9.80000000E-03   3.85107940E+09   4.53638635E+09   4.53638635E+09   3.60206114E+09   3.76775337E+09   3.76775337E+09
   1.00000000E-02   3.85754373E+09   4.51750225E+09   4.51750225E+09   3.61334823E+09   3.77627143E+09   3.77627143E+09
   1.02000000E-02   3.86047966E+09   4.49425384E+09   4.49425384E+09   3.62101150E+09   3.78126918E+09   3.78126918E+09
   1.04000000E-02   3.86001752E+09   4.46689256E+09   4.46689256E+09   3.62516954E+09   3.78286978E+09   3.78286978E+09
   1.06000000E-02   3.85628893E+09   4.43566675E+09   4.43566675E+09   3.62594395E+09   3.78119826E+09   3.78119826E+09
   1.08000000E-02   3.84942619E+09   4.40082085E+09   4.40082085E+09   3.62345877E+09   3.77638089E+09   3.77638089E+09
   1.10000000E-02   3.83956182E+09   4.36259464E+09   4.36259464E+09   3.61783976E+09   3.76854471E+09   3.76854471E+09
   1.12000000E-02   3.82682811E+09   4.32122268E+09   4.32122268E+09   3.60921393E+09   3.75781704E+09   3.75781704E+09
   1.14000000E-02   3.81135672E+09   4.27693374E+09   4.27693374E+09   3.59770897E+09   3.74432507E+09   3.74432507E+09
   1.16000000E-02   3.79327829E+09   4.22995037E+09   4.22995037E+09   3.58345278E+09   3.72819546E+09   3.72819546E+09
   1.18000000E-02   3.77272217E+09   4.18048851E+09   4.18048851E+09   3.56657307E+09   3.70955400E+09   3.70955400E+09
   1.20000000E-02   3.74981604E+09   4.12875722E+09   4.12875722E+09   3.54719692E+09   3.68852528E+09   3.68852528E+09
   1.22000000E-02   3.72468574E+09   4.07495842E+09   4.07495842E+09   3.52545043E+09   3.66523243E+09   3.66523243E+09
   1.24000000E-02   3.69745495E+09   4.01928671E+09   4.01928671E+09   3.50145843E+09   3.63979681E+09   3.63979681E+09
   1.26000000E-02   3.66824506E+09   3.96192923E+09   3.96192923E+09   3.47534414E+09   3.61233784E+09   3.61233784E+09
   1.28000000E-02   3.63717494E+09   3.90306562E+09   3.90306562E+09   3.44722893E+09   3.58297278E+09   3.58297278E+09
   1.30000000E-02   3.60436082E+09   3.84286792E+09   3.84286792E+09   3.41723209E+09   3.55181652E+09   3.55181652E+09
   1.32000000E-02   3.56991612E+09   3.78150061E+09   3.78150061E+09   3.38547065E+09   3.51898149E+09   3.51898149E+09
   1.34000000E-02   3.53395138E+09   3.71912063E+09   3.71912063E+09   3.35205912E+09   3.48457745E+09   3.48457745E+09
   1.36000000E-02   3.49657415E+09   3.65587744E+09   3.65587744E+09   3.31710941E+09   3.44871145E+09   3.44871145E+09
   1.38000000E-02   3.45788888E+09   3.59191309E+09   3.59191309E+09   3.28073068E+09   3.41148768E+09   3.41148768E+09
   1.40000000E-02   3.41799693E+09   3.52736237E+09   3.52736237E+09   3.24302919E+09   3.37300743E+09   3.37300743E+09
   1.42000000E-02   3.37699646E+09   3.46235289E+09   3.46235289E+09   3.20410825E+09   3.33336899E+09   3.33336899E+09
   1.44000000E-02   3.33498245E+09   3.39700528E+09   3.39700528E+09   3.16406810E+09   3.29266764E+09   3.29266764E+09
   1.46000000E-02   3.29204665E+09   3.33143330E+09   3.33143330E+09   3.12300587E+09   3.25099558E+09   3.25099558E+09
   1.48000000E-02   3.24827757E+09   3.26574407E+09   3.26574407E+09   3.08101556E+09   3.20844195E+09   3.20844195E+09
   1.50000000E-02   3.20376051E+09   3.20003821E+09   3.20003821E+09   3.03818794E+09   3.16509276E+09   3.16509276E+09
   1.52000000E-02   3.15857755E+09   3.13441004E+09   3.13441004E+09   2.99461060E+09   3.12103093E+09   3.12103093E+09
   1.54000000E-02   3.11280759E+09   3.06894780E+09   3.06894780E+09   2.95036790E+09   3.07633630E+09   3.07633630E+09
   1.56000000E-02   3.06652634E+09   3.00373385E+09   3.00373385E+09   2.90554096E+09   3.03108562E+09   3.03108562E+09
   1.58000000E-02   3.01980641E+09   2.93884485E+09   2.93884485E+09   2.86020773E+09   2.98535259E+09   2.98535259E+09
   1.60000000E-02   2.97271731E+09   2.87435203E+09   2.87435203E+09   2.81444295E+09   2.93920789E+09   2.93920789E+09
   1.62000000E-02   2.92532550E+09   2.81032132E+09   2.81032132E+09   2.76831822E+09   2.89271921E+09   2.89271921E+09
   1.64000000E-02   2.87769448E+09   2.74681365E+09   2.74681365E+09   2.72190200E+09   2.84595129E+09   2.84595129E+09
   1.66000000E-02   2.82988478E+09   2.68388509E+09   2.68388509E+09   2.67525967E+09   2.79896597E+09   2.79896597E+09
   1.68000000E-02   2.78195407E+09   2.62158709E+09   2.62158709E+09   2.62845360E+09   2.75182225E+09   2.75182225E+09
   1.70000000E-02   2.73395723E+09   2.55996670E+09   2.55996670E+09   2.58154316E+09   2.70457633E+09   2.70457633E+09
   1.72000000E-02   2.68594637E+09   2.49906675E+09   2.49906675E+09   2.53458479E+09   2.65728169E+09   2.65728169E+09
   1.74000000E-02   2.63797090E+09   2.43892606E+09   2.43892606E+09   2.48763208E+09   2.60998911E+09   2.60998911E+09
   1.76000000E-02   2.59007767E+09   2.37957963E+09   2.37957963E+09   2.44073582E+09   2.56274678E+09   2.56274678E+09
   1.78000000E-02   2.54231094E+09   2.32105885E+09   2.32105885E+09   2.39394406E+09   2.51560032E+09   2.51560032E+09
   1.80000000E-02   2.49471253E+09   2.26339166E+09   2.26339166E+09   2.34730219E+09   2.46859290E+09   2.46859290E+09
   1.82000000E-02   2.44732185E+09   2.20660277E+09   2.20660277E+09   2.30085301E+09   2.42176526E+09   2.42176526E+09
   1.84000000E-02   2.40017599E+09   2.15071380E+09   2.15071380E+09   2.25463681E+09   2.37515579E+09   2.37515579E+09
   1.86000000E-02   2.35330979E+09   2.09574347E+09   2.09574347E+09   2.20869140E+09   2.32880063E+09   2.32880063E+09
   1.88000000E-02   2.30675591E+09   2.04170776E+09   2.04170776E+09   2.16305226E+09   2.28273370E+09   2.28273370E+09
   1.90000000E-02   2.26054490E+09   1.98862009E+09   1.98862009E+09   2.11775254E+09   2.23698678E+09   2.23698678E+09
   1.92000000E-02   2.21470529E+09   1.93649145E+09   1.93649145E+09   2.07282320E+09   2.19158961E+09   2.19158961E+09
   1.94000000E-02   2.16926363E+09   1.88533056E+09   1.88533056E+09   2.02829303E+09   2.14656993E+09   2.14656993E+09
   1.96000000E-02   2.12424460E+09   1.83514400E+09   1.83514400E+09   1.98418876E+09   2.10195354E+09   2.10195354E+09
   1.98000000E-02   2.07967105E+09   1.78593637E+09   1.78593637E+09   1.94053514E+09   2.05776441E+09   2.05776441E+09
   2.00000000E-02   2.03556409E+09   1.73771043E+09   1.73771043E+09   1.89735499E+09   2.01402471E+09   2.01402471E+09
   2.02000000E-02   1.99194315E+09   1.69046718E+09   1.69046718E+09   1.85466927E+09   1.97075491E+09   1.97075491E+09
   2.04000000E-02   1.94882603E+09   1.64420602E+09   1.64420602E+09   1.81249719E+09   1.92797381E+09   1.92797381E+09
   2.06000000E-02   1.90622901E+09   1.59892487E+09   1.59892487E+09   1.77085626E+09   1.88569864E+09   1.88569864E+09
   2.08000000E-02   1.86416687E+09   1.55462025E+09   1.55462025E+09   1.72976234E+09   1.84394511E+09   1.84394511E+09
   2.10000000E-02   1.82265298E+09   1.51128741E+09   1.51128741E+09   1.68922976E+09   1.80272746E+09   1.80272746E+09
   2.12000000E-02   1.78169935E+09   1.46892041E+09   1.46892041E+09   1.64927133E+09   1.76205856E+09   1.76205856E+09
   2.14000000E-02   1.74131670E+09   1.42751223E+09   1.42751223E+09   1.60989845E+09   1.72194992E+09   1.72194992E+09
   2.16000000E-02   1.70151452E+09   1.38705488E+09   1.38705488E+09   1.57112116E+09   1.68241180E+09   1.68241180E+09
   2.18000000E-02   1.66230109E+09   1.34753943E+09   1.34753943E+09   1.53294821E+09   1.64345322E+09   1.64345322E+09
   2.20000000E-02   1.62368362E+09   1.30895614E+09   1.30895614E+09   1.49538712E+09   1.60508208E+09   1.60508208E+09
   2.22000000E-02   1.58566822E+09   1.27129452E+09   1.27129452E+09   1.45844421E+09   1.56730513E+09   1.56730513E+09
   2.24000000E-02   1.54825997E+09   1.23454340E+09   1.23454340E+09   1.42212473E+09   1.53012811E+09   1.53012811E+09
   2.26000000E-02   1.51146304E+09   1.19869101E+09   1.19869101E+09   1.38643284E+09   1.49355574E+09   1.49355574E+09
   2.28000000E-02   1.47528062E+09   1.16372502E+09   1.16372502E+09   1.35137173E+09   1.45759180E+09   1.45759180E+09
   2.30000000E-02   1.43971510E+09   1.12963263E+09   1.12963263E+09   1.31694361E+09   1.42223916E+09   1.42223916E+09
   2.32000000E-02   1.40476800E+09   1.09640061E+09   1.09640061E+09   1.28314983E+09   1.38749988E+09   1.38749988E+09
   2.34000000E-02   1.37044011E+09   1.06401536E+09   1.06401536E+09   1.24999087E+09   1.35337516E+09   1.35337516E+09
   2.36000000E-02   1.33673145E+09   1.03246295E+09   1.03246295E+09   1.21746645E+09   1.31986548E+09   1.31986548E+09
   2.38000000E-02   1.30364138E+09   1.00172920E+09   1.00172920E+09   1.18557551E+09   1.28697059E+09   1.28697059E+09
   2.40000000E-02   1.27116860E+09   9.71799674E+08   9.71799674E+08   1.15431631E+09   1.25468958E+09   1.25468958E+09
   2.42000000E-02   1.23931121E+09   9.42659755E+08   9.42659755E+08   1.12368644E+09   1.22302087E+09   1.22302087E+09
   2.44000000E-02   1.20806674E+09   9.14294679E+08   9.14294679E+08   1.09368289E+09   1.19196232E+09   1.19196232E+09
   2.46000000E-02   1.17743218E+09   8.86689567E+08   8.86689567E+08   1.06430206E+09   1.16151121E+09   1.16151121E+09
   2.48000000E-02   1.14740402E+09   8.59829459E+08   8.59829459E+08   1.03553983E+09   1.13166432E+09   1.13166432E+09
   2.50000000E-02   1.11797829E+09   8.33699345E+08   8.33699345E+08   1.00739157E+09   1.10241791E+09   1.10241791E+09
   2.52000000E-02   1.08915058E+09   8.08284193E+08   8.08284193E+08   9.79852198E+08   1.07376781E+09   1.07376781E+09
   2.54000000E-02   1.06091608E+09   7.83568980E+08   7.83568980E+08   9.52916202E+08   1.04570942E+09   1.04570942E+09
   2.56000000E-02   1.03326961E+09   7.59538709E+08   7.59538709E+08   9.26577675E+08   1.01823773E+09   1.01823773E+09
   2.58000000E-02   1.00620563E+09   7.36178438E+08   7.36178438E+08   9.00830348E+08   9.91347392E+08   9.91347392E+08
   2.60000000E-02   9.79718303E+08   7.13473300E+08   7.13473300E+08   8.75667622E+08   9.65032707E+08   9.65032707E+08
   2.62000000E-02   9.53801483E+08   6.91408518E+08   6.91408518E+08   8.51082591E+08   9.39287670E+08   9.39287670E+08
   2.64000000E-02   9.28448760E+08   6.69969426E+08   6.69969426E+08   8.27068075E+08   9.14105990E+08   9.14105990E+08
   2.66000000E-02   9.03653480E+08   6.49141487E+08   6.49141487E+08   8.03616645E+08   8.89481118E+08   8.89481118E+08
   2.68000000E-02   8.79408766E+08   6.28910299E+08   6.28910299E+08   7.80720646E+08   8.65406270E+08   8.65406270E+08
   2.70000000E-02   8.55707540E+08   6.09261620E+08   6.09261620E+08   7.58372223E+08   8.41874447E+08   8.41874447E+08
   2.72000000E-02   8.32542544E+08   5.90181369E+08   5.90181369E+08   7.36563341E+08   8.18878456E+08   8.18878456E+08
   2.74000000E-02   8.09906357E+08   5.71655644E+08   5.71655644E+08   7.15285809E+08   7.96410934E+08   7.96410934E+08
   2.76000000E-02   7.87791417E+08   5.53670725E+08   5.53670725E+08   6.94531298E+08   7.74464361E+08   7.74464361E+08
   2.78000000E-02   7.66190036E+08   5.36213090E+08   5.36213090E+08   6.74291363E+08   7.53031086E+08   7.53031086E+08
   2.80000000E-02   7.45094416E+08   5.19269415E+08   5.19269415E+08   6.54557458E+08   7.32103336E+08   7.32103336E+08
   2.82000000E-02   7.24496667E+08   5.02826588E+08   5.02826588E+08   6.35320956E+08   7.11673239E+08   7.11673239E+08
   2.84000000E-02   7.04388820E+08   4.86871706E+08   4.86871706E+08   6.16573163E+08   6.91732835E+08   6.91732835E+08
   2.86000000E-02   6.84762842E+08   4.71392088E+08   4.71392088E+08   5.98305335E+08   6.72274095E+08   6.72274095E+08
   2.88000000E-02   6.65610649E+08   4.56375272E+08   4.56375272E+08   5.80508692E+08   6.53288931E+08   6.53288931E+08
   2.90000000E-02   6.46924118E+08   4.41809024E+08   4.41809024E+08   5.63174429E+08   6.34769210E+08   6.34769210E+08
   2.92000000E-02   6.28695101E+08   4.27681338E+08   4.27681338E+08   5.46293734E+08   6.16706768E+08   6.16706768E+08
   2.94000000E-02   6.10915433E+08   4.13980439E+08   4.13980439E+08   5.29857795E+08   5.99093420E+08   5.99093420E+08
   2.96000000E-02   5.93576944E+08   4.00694781E+08   4.00694781E+08   5.13857815E+08   5.81920974E+08   5.81920974E+08
   2.98000000E-02   5.76671470E+08   3.87813055E+08   3.87813055E+08   4.98285018E+08   5.65181235E+08   5.65181235E+08
   3.00000000E-02   5.60190861E+08   3.75324182E+08   3.75324182E+08   4.83130664E+08   5.48866022E+08   5.48866022E+08
   3.02000000E-02   5.44126989E+08   3.63217318E+08   3.63217318E+08   4.68386054E+08   5.32967173E+08   5.32967173E+08
   3.04000000E-02   5.28471757E+08   3.51481852E+08   3.51481852E+08   4.54042541E+08   5.17476553E+08   5.17476553E+08
   3.06000000E-02   5.13217108E+08   3.40107406E+08   3.40107406E+08   4.40091536E+08   5.02386064E+08   5.02386064E+08
   3.08000000E-02   4.98355028E+08   3.29083832E+08   3.29083832E+08   4.26524516E+08   4.87687651E+08   4.87687651E+08
   3.10000000E-02   4.83877556E+08   3.18401211E+08   3.18401211E+08   4.13333033E+08   4.73373312E+08   4.73373312E+08
   3.12000000E-02   4.69776791E+08   3.08049856E+08   3.08049856E+08   4.00508714E+08   4.59435098E+08   4.59435098E+08
   3.14000000E-02   4.56044893E+08   2.98020302E+08   2.98020302E+08   3.88043274E+08   4.45865125E+08   4.45865125E+08
   3.16000000E-02   4.42674094E+08   2.88303310E+08   2.88303310E+08   3.75928518E+08   4.32655578E+08   4.32655578E+08
   3.18000000E-02   4.29656696E+08   2.78889863E+08   2.78889863E+08   3.64156345E+08   4.19798714E+08   4.19798714E+08
   3.20000000E-02   4.16985083E+08   2.69771163E+08   2.69771163E+08   3.52718751E+08   4.07286868E+08   4.07286868E+08
   3.22000000E-02   4.04651720E+08   2.60938628E+08   2.60938628E+08   3.41607837E+08   3.95112457E+08   3.95112457E+08
   3.24000000E-02   3.92649156E+08   2.52383888E+08   2.52383888E+08   3.30815812E+08   3.83267986E+08   3.83267986E+08
   3.26000000E-02   3.80970033E+08   2.44098786E+08   2.44098786E+08   3.20334991E+08   3.71746048E+08   3.71746048E+08
   3.28000000E-02   3.69607082E+08   2.36075371E+08   2.36075371E+08   3.10157803E+08   3.60539328E+08   3.60539328E+08
