# TBinMid=0.65 ssec TBinWidth=0.1 ss EBinWidth=0.2MeV Fluence at Earth for this timebin in neutrinos per cm^2
# E(GeV)	NuE	NuMu	NuTau	aNuE	aNuMu	aNuTau
   1.38589050E-13   2.39379573E-16   1.25143803E-16   1.25143803E-16   7.81327462E-17   2.05751713E-16   2.05751713E-16
   2.00000000E-04   3.87478078E+06   3.49438514E+06   3.49438514E+06   1.96167277E+06   3.44028559E+06   3.44028559E+06
   4.00000000E-04   2.02610510E+07   2.04888037E+07   2.04888037E+07   1.15486871E+07   1.82109360E+07   1.82109360E+07
   6.00000000E-04   5.23612374E+07   5.67586049E+07   5.67586049E+07   3.22723009E+07   4.74930208E+07   4.74930208E+07
   8.00000000E-04   1.01370779E+08   1.15366902E+08   1.15366902E+08   6.62714173E+07   9.26350471E+07   9.26350471E+07
   1.00000000E-03   1.67503417E+08   1.97710808E+08   1.97710808E+08   1.14817859E+08   1.54055615E+08   1.54055615E+08
   1.20000000E-03   2.50376388E+08   3.04024386E+08   3.04024386E+08   1.78549745E+08   2.31588741E+08   2.31588741E+08
   1.40000000E-03   3.49219619E+08   4.33702949E+08   4.33702949E+08   2.57621294E+08   3.24674945E+08   3.24674945E+08
   1.60000000E-03   4.63007160E+08   5.85535233E+08   5.85535233E+08   3.51811471E+08   4.32483664E+08   4.32483664E+08
   1.80000000E-03   5.90546531E+08   7.57878158E+08   7.57878158E+08   4.60607718E+08   5.53998183E+08   5.53998183E+08
   2.00000000E-03   7.30542395E+08   9.48791867E+08   9.48791867E+08   5.83272730E+08   6.88077423E+08   6.88077423E+08
   2.20000000E-03   8.81643265E+08   1.15614547E+09   1.15614547E+09   7.18898742E+08   8.33502280E+08   8.33502280E+08
   2.40000000E-03   1.04247636E+09   1.37770033E+09   1.37770033E+09   8.66452203E+08   9.89011021E+08   9.89011021E+08
   2.60000000E-03   1.21167385E+09   1.61117562E+09   1.61117562E+09   1.02481076E+09   1.15332661E+09   1.15332661E+09
   2.80000000E-03   1.38789268E+09   1.85429976E+09   1.85429976E+09   1.19279395E+09   1.32517791E+09   1.32517791E+09
   3.00000000E-03   1.56982940E+09   2.10485035E+09   2.10485035E+09   1.36918873E+09   1.50331615E+09   1.50331615E+09
   3.20000000E-03   1.75623124E+09   2.36068470E+09   2.36068470E+09   1.55277052E+09   1.68652759E+09   1.68652759E+09
   3.40000000E-03   1.94590412E+09   2.61976281E+09   2.61976281E+09   1.74232071E+09   1.87364322E+09   1.87364322E+09
   3.60000000E-03   2.13771829E+09   2.88016391E+09   2.88016391E+09   1.93664080E+09   2.06354598E+09   2.06354598E+09
   3.80000000E-03   2.33061202E+09   3.14009800E+09   3.14009800E+09   2.13456405E+09   2.25517607E+09   2.25517607E+09
   4.00000000E-03   2.52359383E+09   3.39791308E+09   3.39791308E+09   2.33496468E+09   2.44753460E+09   2.44753460E+09
   4.20000000E-03   2.71574344E+09   3.65209896E+09   3.65209896E+09   2.53676514E+09   2.63968593E+09   2.63968593E+09
   4.40000000E-03   2.90621175E+09   3.90128838E+09   3.90128838E+09   2.73894173E+09   2.83075891E+09   2.83075891E+09
   4.60000000E-03   3.09422011E+09   4.14425576E+09   4.14425576E+09   2.94052866E+09   3.01994730E+09   3.01994730E+09
   4.80000000E-03   3.27905883E+09   4.37991433E+09   4.37991433E+09   3.14062099E+09   3.20650942E+09   3.20650942E+09
   5.00000000E-03   3.46008538E+09   4.60731177E+09   4.60731177E+09   3.33837645E+09   3.38976720E+09   3.38976720E+09
   5.20000000E-03   3.63672212E+09   4.82562487E+09   4.82562487E+09   3.53301635E+09   3.56910482E+09   3.56910482E+09
   5.40000000E-03   3.80845372E+09   5.03415335E+09   5.03415335E+09   3.72382580E+09   3.74396693E+09   3.74396693E+09
   5.60000000E-03   3.97482452E+09   5.23231320E+09   5.23231320E+09   3.91015325E+09   3.91385663E+09   3.91385663E+09
   5.80000000E-03   4.13543556E+09   5.41962953E+09   5.41962953E+09   4.09140948E+09   4.07833315E+09   4.07833315E+09
   6.00000000E-03   4.28994169E+09   5.59572931E+09   5.59572931E+09   4.26706621E+09   4.23700943E+09   4.23700943E+09
   6.20000000E-03   4.43804853E+09   5.76033403E+09   5.76033403E+09   4.43665433E+09   4.38954956E+09   4.38954956E+09
   6.40000000E-03   4.57950948E+09   5.91325227E+09   5.91325227E+09   4.59976185E+09   4.53566617E+09   4.53566617E+09
   6.60000000E-03   4.71412267E+09   6.05437249E+09   6.05437249E+09   4.75603161E+09   4.67511771E+09   4.67511771E+09
   6.80000000E-03   4.84172808E+09   6.18365594E+09   6.18365594E+09   4.90515883E+09   4.80770580E+09   4.80770580E+09
   7.00000000E-03   4.96220456E+09   6.30112980E+09   6.30112980E+09   5.04688858E+09   4.93327256E+09   4.93327256E+09
   7.20000000E-03   5.07546708E+09   6.40688057E+09   6.40688057E+09   5.18101308E+09   5.05169793E+09   5.05169793E+09
   7.40000000E-03   5.18146396E+09   6.50104779E+09   6.50104779E+09   5.30736904E+09   5.16289710E+09   5.16289710E+09
   7.60000000E-03   5.28017422E+09   6.58381806E+09   6.58381806E+09   5.42583490E+09   5.26681797E+09   5.26681797E+09
   7.80000000E-03   5.37160509E+09   6.65541937E+09   6.65541937E+09   5.53632815E+09   5.36343868E+09   5.36343868E+09
   8.00000000E-03   5.45578955E+09   6.71611578E+09   6.71611578E+09   5.63880260E+09   5.45276525E+09   5.45276525E+09
   8.20000000E-03   5.53278401E+09   6.76620246E+09   6.76620246E+09   5.73324577E+09   5.53482925E+09   5.53482925E+09
   8.40000000E-03   5.60266615E+09   6.80600105E+09   6.80600105E+09   5.81967628E+09   5.60968561E+09   5.60968561E+09
   8.60000000E-03   5.66553277E+09   6.83585537E+09   6.83585537E+09   5.89814131E+09   5.67741052E+09   5.67741052E+09
   8.80000000E-03   5.72149784E+09   6.85612743E+09   6.85612743E+09   5.96871420E+09   5.73809940E+09   5.73809940E+09
   9.00000000E-03   5.77069066E+09   6.86719377E+09   6.86719377E+09   6.03149206E+09   5.79186498E+09   5.79186498E+09
   9.20000000E-03   5.81325405E+09   6.86944212E+09   6.86944212E+09   6.08659354E+09   5.83883549E+09   5.83883549E+09
   9.40000000E-03   5.84934273E+09   6.86326835E+09   6.86326835E+09   6.13415661E+09   5.87915297E+09   5.87915297E+09
   9.60000000E-03   5.87912178E+09   6.84907369E+09   6.84907369E+09   6.17433658E+09   5.91297157E+09   5.91297157E+09
   9.80000000E-03   5.90276518E+09   6.82726220E+09   6.82726220E+09   6.20730404E+09   5.94045611E+09   5.94045611E+09
   1.00000000E-02   5.92045445E+09   6.79823854E+09   6.79823854E+09   6.23324310E+09   5.96178059E+09   5.96178059E+09
   1.02000000E-02   5.93237743E+09   6.76240595E+09   6.76240595E+09   6.25234955E+09   5.97712686E+09   5.97712686E+09
   1.04000000E-02   5.93872709E+09   6.72016440E+09   6.72016440E+09   6.26482926E+09   5.98668338E+09   5.98668338E+09
   1.06000000E-02   5.93970045E+09   6.67190907E+09   6.67190907E+09   6.27089660E+09   5.99064401E+09   5.99064401E+09
   1.08000000E-02   5.93549761E+09   6.61802890E+09   6.61802890E+09   6.27077301E+09   5.98920698E+09   5.98920698E+09
   1.10000000E-02   5.92632081E+09   6.55890542E+09   6.55890542E+09   6.26468560E+09   5.98257381E+09   5.98257381E+09
   1.12000000E-02   5.91237360E+09   6.49491165E+09   6.49491165E+09   6.25286594E+09   5.97094846E+09   5.97094846E+09
   1.14000000E-02   5.89386005E+09   6.42641123E+09   6.42641123E+09   6.23554886E+09   5.95453639E+09   5.95453639E+09
   1.16000000E-02   5.87098408E+09   6.35375767E+09   6.35375767E+09   6.21297137E+09   5.93354381E+09   5.93354381E+09
   1.18000000E-02   5.84394877E+09   6.27729372E+09   6.27729372E+09   6.18537167E+09   5.90817697E+09   5.90817697E+09
   1.20000000E-02   5.81295585E+09   6.19735087E+09   6.19735087E+09   6.15298820E+09   5.87864146E+09   5.87864146E+09
   1.22000000E-02   5.77820510E+09   6.11424892E+09   6.11424892E+09   6.11605885E+09   5.84514162E+09   5.84514162E+09
   1.24000000E-02   5.73989391E+09   6.02829574E+09   6.02829574E+09   6.07482016E+09   5.80788000E+09   5.80788000E+09
   1.26000000E-02   5.69821690E+09   5.93978700E+09   5.93978700E+09   6.02950665E+09   5.76705687E+09   5.76705687E+09
   1.28000000E-02   5.65336546E+09   5.84900610E+09   5.84900610E+09   5.98035014E+09   5.72286975E+09   5.72286975E+09
   1.30000000E-02   5.60552747E+09   5.75622405E+09   5.75622405E+09   5.92757927E+09   5.67551306E+09   5.67551306E+09
   1.32000000E-02   5.55488703E+09   5.66169952E+09   5.66169952E+09   5.87141892E+09   5.62517773E+09   5.62517773E+09
   1.34000000E-02   5.50162415E+09   5.56567887E+09   5.56567887E+09   5.81208980E+09   5.57205088E+09   5.57205088E+09
   1.36000000E-02   5.44591456E+09   5.46839629E+09   5.46839629E+09   5.74980803E+09   5.51631559E+09   5.51631559E+09
   1.38000000E-02   5.38792953E+09   5.37007395E+09   5.37007395E+09   5.68478482E+09   5.45815063E+09   5.45815063E+09
   1.40000000E-02   5.32783571E+09   5.27092218E+09   5.27092218E+09   5.61722617E+09   5.39773029E+09   5.39773029E+09
   1.42000000E-02   5.26579500E+09   5.17113972E+09   5.17113972E+09   5.54733259E+09   5.33522416E+09   5.33522416E+09
   1.44000000E-02   5.20196444E+09   5.07091396E+09   5.07091396E+09   5.47529892E+09   5.27079704E+09   5.27079704E+09
   1.46000000E-02   5.13649614E+09   4.97042123E+09   4.97042123E+09   5.40131410E+09   5.20460880E+09   5.20460880E+09
   1.48000000E-02   5.06953724E+09   4.86982710E+09   4.86982710E+09   5.32556110E+09   5.13681429E+09   5.13681429E+09
   1.50000000E-02   5.00122985E+09   4.76928670E+09   4.76928670E+09   5.24821675E+09   5.06756329E+09   5.06756329E+09
   1.52000000E-02   4.93171102E+09   4.66894503E+09   4.66894503E+09   5.16945168E+09   4.99700043E+09   4.99700043E+09
   1.54000000E-02   4.86111279E+09   4.56893733E+09   4.56893733E+09   5.08943027E+09   4.92526522E+09   4.92526522E+09
   1.56000000E-02   4.78956217E+09   4.46938942E+09   4.46938942E+09   5.00831063E+09   4.85249199E+09   4.85249199E+09
   1.58000000E-02   4.71718116E+09   4.37041804E+09   4.37041804E+09   4.92624458E+09   4.77880992E+09   4.77880992E+09
   1.60000000E-02   4.64408680E+09   4.27213121E+09   4.27213121E+09   4.84337767E+09   4.70434307E+09   4.70434307E+09
   1.62000000E-02   4.57039124E+09   4.17462860E+09   4.17462860E+09   4.75984921E+09   4.62921040E+09   4.62921040E+09
   1.64000000E-02   4.49620178E+09   4.07800187E+09   4.07800187E+09   4.67579236E+09   4.55352584E+09   4.55352584E+09
   1.66000000E-02   4.42162094E+09   3.98233503E+09   3.98233503E+09   4.59133413E+09   4.47739833E+09   4.47739833E+09
   1.68000000E-02   4.34674654E+09   3.88770480E+09   3.88770480E+09   4.50659551E+09   4.40093190E+09   4.40093190E+09
   1.70000000E-02   4.27167182E+09   3.79418093E+09   3.79418093E+09   4.42169157E+09   4.32422573E+09   4.32422573E+09
   1.72000000E-02   4.19648546E+09   3.70182655E+09   3.70182655E+09   4.33673153E+09   4.24737428E+09   4.24737428E+09
   1.74000000E-02   4.12127176E+09   3.61069852E+09   3.61069852E+09   4.25181889E+09   4.17046732E+09   4.17046732E+09
   1.76000000E-02   4.04611066E+09   3.52084772E+09   3.52084772E+09   4.16705157E+09   4.09359008E+09   4.09359008E+09
   1.78000000E-02   3.97107792E+09   3.43231941E+09   3.43231941E+09   4.08252201E+09   4.01682333E+09   4.01682333E+09
   1.80000000E-02   3.89624516E+09   3.34515349E+09   3.34515349E+09   3.99831733E+09   3.94024350E+09   3.94024350E+09
   1.82000000E-02   3.82168004E+09   3.25938482E+09   3.25938482E+09   3.91451945E+09   3.86392276E+09   3.86392276E+09
   1.84000000E-02   3.74744631E+09   3.17504354E+09   3.17504354E+09   3.83120526E+09   3.78792917E+09   3.78792917E+09
   1.86000000E-02   3.67360395E+09   3.09215528E+09   3.09215528E+09   3.74844674E+09   3.71232678E+09   3.71232678E+09
   1.88000000E-02   3.60020930E+09   3.01074149E+09   3.01074149E+09   3.66631115E+09   3.63717576E+09   3.63717576E+09
   1.90000000E-02   3.52731516E+09   2.93081969E+09   2.93081969E+09   3.58486113E+09   3.56253250E+09   3.56253250E+09
   1.92000000E-02   3.45497088E+09   2.85240370E+09   2.85240370E+09   3.50415492E+09   3.48844973E+09   3.48844973E+09
   1.94000000E-02   3.38322255E+09   2.77550388E+09   2.77550388E+09   3.42424644E+09   3.41497667E+09   3.41497667E+09
   1.96000000E-02   3.31211303E+09   2.70012738E+09   2.70012738E+09   3.34518552E+09   3.34215912E+09   3.34215912E+09
   1.98000000E-02   3.24168212E+09   2.62627835E+09   2.62627835E+09   3.26701800E+09   3.27003960E+09   3.27003960E+09
   2.00000000E-02   3.17196665E+09   2.55395815E+09   2.55395815E+09   3.18978591E+09   3.19865744E+09   3.19865744E+09
   2.02000000E-02   3.10300061E+09   2.48316557E+09   2.48316557E+09   3.11352761E+09   3.12804894E+09   3.12804894E+09
   2.04000000E-02   3.03481524E+09   2.41389696E+09   2.41389696E+09   3.03827795E+09   3.05824745E+09   3.05824745E+09
   2.06000000E-02   2.96743916E+09   2.34614649E+09   2.34614649E+09   2.96406842E+09   2.98928353E+09   2.98928353E+09
   2.08000000E-02   2.90089845E+09   2.27990630E+09   2.27990630E+09   2.89092729E+09   2.92118501E+09   2.92118501E+09
   2.10000000E-02   2.83521679E+09   2.21516663E+09   2.21516663E+09   2.81887975E+09   2.85397713E+09   2.85397713E+09
   2.12000000E-02   2.77041554E+09   2.15191600E+09   2.15191600E+09   2.74794807E+09   2.78768267E+09   2.78768267E+09
   2.14000000E-02   2.70651384E+09   2.09014139E+09   2.09014139E+09   2.67815172E+09   2.72232202E+09   2.72232202E+09
   2.16000000E-02   2.64352875E+09   2.02982832E+09   2.02982832E+09   2.60950751E+09   2.65791332E+09   2.65791332E+09
   2.18000000E-02   2.58147527E+09   1.97096103E+09   1.97096103E+09   2.54202972E+09   2.59447253E+09   2.59447253E+09
   2.20000000E-02   2.52036650E+09   1.91352258E+09   1.91352258E+09   2.47573025E+09   2.53201356E+09   2.53201356E+09
   2.22000000E-02   2.46021372E+09   1.85749499E+09   1.85749499E+09   2.41061871E+09   2.47054837E+09   2.47054837E+09
   2.24000000E-02   2.40102645E+09   1.80285931E+09   1.80285931E+09   2.34670257E+09   2.41008703E+09   2.41008703E+09
   2.26000000E-02   2.34281257E+09   1.74959578E+09   1.74959578E+09   2.28398728E+09   2.35063786E+09   2.35063786E+09
   2.28000000E-02   2.28557839E+09   1.69768389E+09   1.69768389E+09   2.22247634E+09   2.29220748E+09   2.29220748E+09
   2.30000000E-02   2.22932873E+09   1.64710247E+09   1.64710247E+09   2.16217148E+09   2.23480095E+09   2.23480095E+09
   2.32000000E-02   2.17406700E+09   1.59782982E+09   1.59782982E+09   2.10307271E+09   2.17842179E+09   2.17842179E+09
   2.34000000E-02   2.11979528E+09   1.54984373E+09   1.54984373E+09   2.04517844E+09   2.12307211E+09   2.12307211E+09
   2.36000000E-02   2.06651442E+09   1.50312160E+09   1.50312160E+09   1.98848562E+09   2.06875268E+09   2.06875268E+09
   2.38000000E-02   2.01422404E+09   1.45764048E+09   1.45764048E+09   1.93298976E+09   2.01546300E+09   2.01546300E+09
   2.40000000E-02   1.96292268E+09   1.41337717E+09   1.41337717E+09   1.87868508E+09   1.96320138E+09   1.96320138E+09
   2.42000000E-02   1.91260781E+09   1.37030826E+09   1.37030826E+09   1.82556460E+09   1.91196502E+09   1.91196502E+09
   2.44000000E-02   1.86327594E+09   1.32841017E+09   1.32841017E+09   1.77362018E+09   1.86175005E+09   1.86175005E+09
   2.46000000E-02   1.81492264E+09   1.28765925E+09   1.28765925E+09   1.72284265E+09   1.81255165E+09   1.81255165E+09
   2.48000000E-02   1.76754261E+09   1.24803176E+09   1.24803176E+09   1.67322186E+09   1.76436405E+09   1.76436405E+09
   2.50000000E-02   1.72112978E+09   1.20950400E+09   1.20950400E+09   1.62474677E+09   1.71718064E+09   1.71718064E+09
   2.52000000E-02   1.67567729E+09   1.17205228E+09   1.17205228E+09   1.57740553E+09   1.67099403E+09   1.67099403E+09
   2.54000000E-02   1.63117760E+09   1.13565298E+09   1.13565298E+09   1.53118550E+09   1.62579607E+09   1.62579607E+09
   2.56000000E-02   1.58762254E+09   1.10028261E+09   1.10028261E+09   1.48607339E+09   1.58157792E+09   1.58157792E+09
   2.58000000E-02   1.54500331E+09   1.06591780E+09   1.06591780E+09   1.44205526E+09   1.53833013E+09   1.53833013E+09
   2.60000000E-02   1.50331058E+09   1.03253536E+09   1.03253536E+09   1.39911662E+09   1.49604265E+09   1.49604265E+09
   2.62000000E-02   1.46253451E+09   1.00011230E+09   1.00011230E+09   1.35724245E+09   1.45470493E+09   1.45470493E+09
   2.64000000E-02   1.42266479E+09   9.68625844E+08   9.68625844E+08   1.31641730E+09   1.41430588E+09   1.41430588E+09
   2.66000000E-02   1.38369069E+09   9.38053467E+08   9.38053467E+08   1.27662530E+09   1.37483401E+09   1.37483401E+09
   2.68000000E-02   1.34560108E+09   9.08372897E+08   9.08372897E+08   1.23785022E+09   1.33627741E+09   1.33627741E+09
   2.70000000E-02   1.30838452E+09   8.79562147E+08   8.79562147E+08   1.20007553E+09   1.29862381E+09   1.29862381E+09
   2.72000000E-02   1.27202921E+09   8.51599524E+08   8.51599524E+08   1.16328444E+09   1.26186062E+09   1.26186062E+09
   2.74000000E-02   1.23652309E+09   8.24463645E+08   8.24463645E+08   1.12745992E+09   1.22597495E+09   1.22597495E+09
   2.76000000E-02   1.20185387E+09   7.98133447E+08   7.98133447E+08   1.09258476E+09   1.19095366E+09   1.19095366E+09
   2.78000000E-02   1.16800900E+09   7.72588201E+08   7.72588201E+08   1.05864160E+09   1.15678339E+09   1.15678339E+09
   2.80000000E-02   1.13497577E+09   7.47807518E+08   7.47807518E+08   1.02561296E+09   1.12345059E+09   1.12345059E+09
   2.82000000E-02   1.10274131E+09   7.23771359E+08   7.23771359E+08   9.93481297E+08   1.09094155E+09   1.09094155E+09
   2.84000000E-02   1.07129259E+09   7.00460038E+08   7.00460038E+08   9.62228990E+08   1.05924241E+09   1.05924241E+09
   2.86000000E-02   1.04061649E+09   6.77854233E+08   6.77854233E+08   9.31838406E+08   1.02833921E+09   1.02833921E+09
   2.88000000E-02   1.01069979E+09   6.55934986E+08   6.55934986E+08   9.02291914E+08   9.98217913E+08   9.98217913E+08
   2.90000000E-02   9.81529187E+08   6.34683705E+08   6.34683705E+08   8.73571907E+08   9.68864405E+08   9.68864405E+08
   2.92000000E-02   9.53091358E+08   6.14082173E+08   6.14082173E+08   8.45660833E+08   9.40264541E+08   9.40264541E+08
   2.94000000E-02   9.25372932E+08   5.94112542E+08   5.94112542E+08   8.18541209E+08   9.12404153E+08   9.12404153E+08
   2.96000000E-02   8.98360535E+08   5.74757337E+08   5.74757337E+08   7.92195644E+08   8.85269074E+08   8.85269074E+08
   2.98000000E-02   8.72040795E+08   5.55999459E+08   5.55999459E+08   7.66606859E+08   8.58845154E+08   8.58845154E+08
   3.00000000E-02   8.46400365E+08   5.37822177E+08   5.37822177E+08   7.41757702E+08   8.33118275E+08   8.33118275E+08
   3.02000000E-02   8.21425933E+08   5.20209133E+08   5.20209133E+08   7.17631166E+08   8.08074371E+08   8.08074371E+08
   3.04000000E-02   7.97104238E+08   5.03144338E+08   5.03144338E+08   6.94210400E+08   7.83699441E+08   7.83699441E+08
   3.06000000E-02   7.73422085E+08   4.86612170E+08   4.86612170E+08   6.71478725E+08   7.59979559E+08   7.59979559E+08
   3.08000000E-02   7.50366351E+08   4.70597368E+08   4.70597368E+08   6.49419648E+08   7.36900892E+08   7.36900892E+08
   3.10000000E-02   7.27924005E+08   4.55085034E+08   4.55085034E+08   6.28016868E+08   7.14449709E+08   7.14449709E+08
   3.12000000E-02   7.06082108E+08   4.40060627E+08   4.40060627E+08   6.07254290E+08   6.92612393E+08   6.92612393E+08
   3.14000000E-02   6.84827833E+08   4.25509957E+08   4.25509957E+08   5.87116034E+08   6.71375447E+08   6.71375447E+08
   3.16000000E-02   6.64148466E+08   4.11419184E+08   4.11419184E+08   5.67586439E+08   6.50725510E+08   6.50725510E+08
   3.18000000E-02   6.44031419E+08   3.97774811E+08   3.97774811E+08   5.48650077E+08   6.30649360E+08   6.30649360E+08
   3.20000000E-02   6.24464235E+08   3.84563681E+08   3.84563681E+08   5.30291754E+08   6.11133926E+08   6.11133926E+08
   3.22000000E-02   6.05434595E+08   3.71772971E+08   3.71772971E+08   5.12496517E+08   5.92166288E+08   5.92166288E+08
   3.24000000E-02   5.86930327E+08   3.59390186E+08   3.59390186E+08   4.95249659E+08   5.73733693E+08   5.73733693E+08
   3.26000000E-02   5.68939407E+08   3.47403156E+08   3.47403156E+08   4.78536725E+08   5.55823552E+08   5.55823552E+08
   3.28000000E-02   5.51449969E+08   3.35800028E+08   3.35800028E+08   4.62343512E+08   5.38423451E+08   5.38423451E+08
