# TBinMid=0.25 ssec TBinWidth=0.1 ss EBinWidth=0.2MeV Fluence at Earth for this timebin in neutrinos per cm^2
# E(GeV)	NuE	NuMu	NuTau	aNuE	aNuMu	aNuTau
   1.38589050E-13   5.59538541E-13   2.97588857E-13   2.97588857E-13   1.82545446E-13   4.80730049E-13   4.80730049E-13
   2.00000000E-04   1.45263990E+07   1.76339974E+07   1.76339974E+07   5.88467606E+06   1.23879235E+07   1.23879235E+07
   4.00000000E-04   6.28941283E+07   8.29597435E+07   8.29597435E+07   2.87881741E+07   5.41700920E+07   5.41700920E+07
   6.00000000E-04   1.45814553E+08   2.01879321E+08   2.01879321E+08   7.32532349E+07   1.26766684E+08   1.26766684E+08
   8.00000000E-04   2.61674322E+08   3.74618046E+08   3.74618046E+08   1.41892515E+08   2.29487764E+08   2.29487764E+08
   1.00000000E-03   4.08046340E+08   5.98948992E+08   5.98948992E+08   2.36148282E+08   3.60805763E+08   3.60805763E+08
   1.20000000E-03   5.82150321E+08   8.71322813E+08   8.71322813E+08   3.56610710E+08   5.18758311E+08   5.18758311E+08
   1.40000000E-03   7.81069504E+08   1.18745131E+09   1.18745131E+09   5.03216693E+08   7.01147387E+08   7.01147387E+08
   1.60000000E-03   1.00187015E+09   1.54265654E+09   1.54265654E+09   6.75393106E+08   9.05656022E+08   9.05656022E+08
   1.80000000E-03   1.24167281E+09   1.93209611E+09   1.93209611E+09   8.72167534E+08   1.12992322E+09   1.12992322E+09
   2.00000000E-03   1.49769652E+09   2.35091488E+09   2.35091488E+09   1.09225716E+09   1.37159468E+09   1.37159468E+09
   2.20000000E-03   1.76728628E+09   2.79434909E+09   2.79434909E+09   1.33414171E+09   1.62835814E+09   1.62835814E+09
   2.40000000E-03   2.04792984E+09   3.25779835E+09   3.25779835E+09   1.59612410E+09   1.89796850E+09   1.89796850E+09
   2.60000000E-03   2.33726727E+09   3.73687478E+09   3.73687478E+09   1.87638111E+09   2.17826546E+09   2.17826546E+09
   2.80000000E-03   2.63309542E+09   4.22743575E+09   4.22743575E+09   2.17300606E+09   2.46718603E+09   2.46718603E+09
   3.00000000E-03   2.93336893E+09   4.72560439E+09   4.72560439E+09   2.48404454E+09   2.76277288E+09   2.76277288E+09
   3.20000000E-03   3.23619867E+09   5.22778103E+09   5.22778103E+09   2.80752445E+09   3.06317976E+09   3.06317976E+09
   3.40000000E-03   3.53984843E+09   5.73064781E+09   5.73064781E+09   3.14148100E+09   3.36667450E+09   3.36667450E+09
   3.60000000E-03   3.84273027E+09   6.23116807E+09   6.23116807E+09   3.48397758E+09   3.67164022E+09   3.67164022E+09
   3.80000000E-03   4.14339901E+09   6.72658193E+09   6.72658193E+09   3.83312286E+09   3.97657509E+09   3.97657509E+09
   4.00000000E-03   4.44054618E+09   7.21439894E+09   7.21439894E+09   4.18708471E+09   4.28009097E+09   4.28009097E+09
   4.20000000E-03   4.73299345E+09   7.69238857E+09   7.69238857E+09   4.54410144E+09   4.58091115E+09   4.58091115E+09
   4.40000000E-03   5.01968597E+09   8.15856925E+09   8.15856925E+09   4.90249058E+09   4.87786745E+09   4.87786745E+09
   4.60000000E-03   5.29968550E+09   8.61119624E+09   8.61119624E+09   5.26065560E+09   5.16989675E+09   5.16989675E+09
   4.80000000E-03   5.57216367E+09   9.04874890E+09   9.04874890E+09   5.61709089E+09   5.45603716E+09   5.45603716E+09
   5.00000000E-03   5.83639517E+09   9.46991760E+09   9.46991760E+09   5.97038513E+09   5.73542389E+09   5.73542389E+09
   5.20000000E-03   6.09175116E+09   9.87359033E+09   9.87359033E+09   6.31922334E+09   6.00728492E+09   6.00728492E+09
   5.40000000E-03   6.33769288E+09   1.02588395E+10   1.02588395E+10   6.66238789E+09   6.27093654E+09   6.27093654E+09
   5.60000000E-03   6.57376534E+09   1.06249089E+10   1.06249089E+10   6.99875838E+09   6.52577878E+09   6.52577878E+09
   5.80000000E-03   6.79959136E+09   1.09712009E+10   1.09712009E+10   7.32731084E+09   6.77129093E+09   6.77129093E+09
   6.00000000E-03   7.01486577E+09   1.12972637E+10   1.12972637E+10   7.64711616E+09   7.00702693E+09   7.00702693E+09
   6.20000000E-03   7.21934992E+09   1.16027799E+10   1.16027799E+10   7.95733797E+09   7.23261091E+09   7.23261091E+09
   6.40000000E-03   7.41286637E+09   1.18875546E+10   1.18875546E+10   8.25723003E+09   7.44773277E+09   7.44773277E+09
   6.60000000E-03   7.59529396E+09   1.21515046E+10   1.21515046E+10   8.54613329E+09   7.65214391E+09   7.65214391E+09
   6.80000000E-03   7.76656298E+09   1.23946478E+10   1.23946478E+10   8.82347255E+09   7.84565295E+09   7.84565295E+09
   7.00000000E-03   7.92665072E+09   1.26170935E+10   1.26170935E+10   9.08875297E+09   8.02812175E+09   8.02812175E+09
   7.20000000E-03   8.07557724E+09   1.28190327E+10   1.28190327E+10   9.34155635E+09   8.19946140E+09   8.19946140E+09
   7.40000000E-03   8.21340135E+09   1.30007299E+10   1.30007299E+10   9.58153734E+09   8.35962851E+09   8.35962851E+09
   7.60000000E-03   8.34021683E+09   1.31625141E+10   1.31625141E+10   9.80841948E+09   8.50862153E+09   8.50862153E+09
   7.80000000E-03   8.45614897E+09   1.33047719E+10   1.33047719E+10   1.00219913E+10   8.64647731E+09   8.64647731E+09
   8.00000000E-03   8.56135120E+09   1.34279395E+10   1.34279395E+10   1.02221024E+10   8.77326774E+09   8.77326774E+09
   8.20000000E-03   8.65600202E+09   1.35324967E+10   1.35324967E+10   1.04086593E+10   8.88909666E+09   8.88909666E+09
   8.40000000E-03   8.74030212E+09   1.36189602E+10   1.36189602E+10   1.05816220E+10   8.99409680E+09   8.99409680E+09
   8.60000000E-03   8.81447169E+09   1.36878780E+10   1.36878780E+10   1.07409998E+10   9.08842697E+09   9.08842697E+09
   8.80000000E-03   8.87874788E+09   1.37398243E+10   1.37398243E+10   1.08868476E+10   9.17226937E+09   9.17226937E+09
   9.00000000E-03   8.93338253E+09   1.37753943E+10   1.37753943E+10   1.10192626E+10   9.24582705E+09   9.24582705E+09
   9.20000000E-03   8.97863997E+09   1.37952000E+10   1.37952000E+10   1.11383803E+10   9.30932151E+09   9.30932151E+09
   9.40000000E-03   9.01479504E+09   1.37998659E+10   1.37998659E+10   1.12443716E+10   9.36299050E+09   9.36299050E+09
   9.60000000E-03   9.04213125E+09   1.37900253E+10   1.37900253E+10   1.13374393E+10   9.40708584E+09   9.40708584E+09
   9.80000000E-03   9.06093907E+09   1.37663170E+10   1.37663170E+10   1.14178150E+10   9.44187152E+09   9.44187152E+09
   1.00000000E-02   9.07151438E+09   1.37293822E+10   1.37293822E+10   1.14857560E+10   9.46762183E+09   9.46762183E+09
   1.02000000E-02   9.07415703E+09   1.36798617E+10   1.36798617E+10   1.15415429E+10   9.48461964E+09   9.48461964E+09
   1.04000000E-02   9.06916950E+09   1.36183933E+10   1.36183933E+10   1.15854762E+10   9.49315480E+09   9.49315480E+09
   1.06000000E-02   9.05685575E+09   1.35456098E+10   1.35456098E+10   1.16178746E+10   9.49352271E+09   9.49352271E+09
   1.08000000E-02   9.03752008E+09   1.34621367E+10   1.34621367E+10   1.16390719E+10   9.48602287E+09   9.48602287E+09
   1.10000000E-02   9.01146618E+09   1.33685907E+10   1.33685907E+10   1.16494148E+10   9.47095769E+09   9.47095769E+09
   1.12000000E-02   8.97899618E+09   1.32655782E+10   1.32655782E+10   1.16492613E+10   9.44863127E+09   9.44863127E+09
   1.14000000E-02   8.94040987E+09   1.31536935E+10   1.31536935E+10   1.16389780E+10   9.41934835E+09   9.41934835E+09
   1.16000000E-02   8.89600397E+09   1.30335182E+10   1.30335182E+10   1.16189388E+10   9.38341335E+09   9.38341335E+09
   1.18000000E-02   8.84607146E+09   1.29056198E+10   1.29056198E+10   1.15895227E+10   9.34112944E+09   9.34112944E+09
   1.20000000E-02   8.79090104E+09   1.27705509E+10   1.27705509E+10   1.15511127E+10   9.29279774E+09   9.29279774E+09
   1.22000000E-02   8.73077655E+09   1.26288487E+10   1.26288487E+10   1.15040937E+10   9.23871660E+09   9.23871660E+09
   1.24000000E-02   8.66597656E+09   1.24810343E+10   1.24810343E+10   1.14488517E+10   9.17918090E+09   9.17918090E+09
   1.26000000E-02   8.59677398E+09   1.23276119E+10   1.23276119E+10   1.13857719E+10   9.11448145E+09   9.11448145E+09
   1.28000000E-02   8.52343568E+09   1.21690693E+10   1.21690693E+10   1.13152382E+10   9.04490452E+09   9.04490452E+09
   1.30000000E-02   8.44622224E+09   1.20058765E+10   1.20058765E+10   1.12376316E+10   8.97073128E+09   8.97073128E+09
   1.32000000E-02   8.36538768E+09   1.18384866E+10   1.18384866E+10   1.11533297E+10   8.89223741E+09   8.89223741E+09
   1.34000000E-02   8.28117925E+09   1.16673351E+10   1.16673351E+10   1.10627053E+10   8.80969275E+09   8.80969275E+09
   1.36000000E-02   8.19383726E+09   1.14928400E+10   1.14928400E+10   1.09661259E+10   8.72336099E+09   8.72336099E+09
   1.38000000E-02   8.10359498E+09   1.13154018E+10   1.13154018E+10   1.08639531E+10   8.63349932E+09   8.63349932E+09
   1.40000000E-02   8.01067850E+09   1.11354040E+10   1.11354040E+10   1.07565418E+10   8.54035831E+09   8.54035831E+09
   1.42000000E-02   7.91530670E+09   1.09532128E+10   1.09532128E+10   1.06442395E+10   8.44418162E+09   8.44418162E+09
   1.44000000E-02   7.81769116E+09   1.07691774E+10   1.07691774E+10   1.05273861E+10   8.34520590E+09   8.34520590E+09
   1.46000000E-02   7.71803621E+09   1.05836305E+10   1.05836305E+10   1.04063134E+10   8.24366065E+09   8.24366065E+09
   1.48000000E-02   7.61653887E+09   1.03968884E+10   1.03968884E+10   1.02813446E+10   8.13976812E+09   8.13976812E+09
   1.50000000E-02   7.51338892E+09   1.02092513E+10   1.02092513E+10   1.01527941E+10   8.03374328E+09   8.03374328E+09
   1.52000000E-02   7.40876893E+09   1.00210037E+10   1.00210037E+10   1.00209671E+10   7.92579373E+09   7.92579373E+09
   1.54000000E-02   7.30285432E+09   9.83241480E+09   9.83241480E+09   9.88615959E+09   7.81611973E+09   7.81611973E+09
   1.56000000E-02   7.19581344E+09   9.64373883E+09   9.64373883E+09   9.74865817E+09   7.70491421E+09   7.70491421E+09
   1.58000000E-02   7.08780767E+09   9.45521548E+09   9.45521548E+09   9.60873975E+09   7.59236277E+09   7.59236277E+09
   1.60000000E-02   6.97899150E+09   9.26707032E+09   9.26707032E+09   9.46667161E+09   7.47864375E+09   7.47864375E+09
   1.62000000E-02   6.86951267E+09   9.07951524E+09   9.07951524E+09   9.32271130E+09   7.36392829E+09   7.36392829E+09
   1.64000000E-02   6.75951227E+09   8.89274883E+09   8.89274883E+09   9.17710668E+09   7.24838040E+09   7.24838040E+09
   1.66000000E-02   6.64912489E+09   8.70695690E+09   8.70695690E+09   9.03009585E+09   7.13215707E+09   7.13215707E+09
   1.68000000E-02   6.53847873E+09   8.52231284E+09   8.52231284E+09   8.88190730E+09   7.01540834E+09   7.01540834E+09
   1.70000000E-02   6.42769578E+09   8.33897815E+09   8.33897815E+09   8.73275989E+09   6.89827748E+09   6.89827748E+09
   1.72000000E-02   6.31689192E+09   8.15710279E+09   8.15710279E+09   8.58286297E+09   6.78090104E+09   6.78090104E+09
   1.74000000E-02   6.20617714E+09   7.97682571E+09   7.97682571E+09   8.43241651E+09   6.66340902E+09   6.66340902E+09
   1.76000000E-02   6.09565561E+09   7.79827522E+09   7.79827522E+09   8.28161123E+09   6.54592501E+09   6.54592501E+09
   1.78000000E-02   5.98542591E+09   7.62156948E+09   7.62156948E+09   8.13062870E+09   6.42856633E+09   6.42856633E+09
   1.80000000E-02   5.87558117E+09   7.44681687E+09   7.44681687E+09   7.97964158E+09   6.31144417E+09   6.31144417E+09
   1.82000000E-02   5.76620921E+09   7.27411646E+09   7.27411646E+09   7.82881372E+09   6.19466379E+09   6.19466379E+09
   1.84000000E-02   5.65739273E+09   7.10355841E+09   7.10355841E+09   7.67830037E+09   6.07832459E+09   6.07832459E+09
   1.86000000E-02   5.54920944E+09   6.93522435E+09   6.93522435E+09   7.52824842E+09   5.96252037E+09   5.96252037E+09
   1.88000000E-02   5.44173226E+09   6.76918782E+09   6.76918782E+09   7.37879651E+09   5.84733943E+09   5.84733943E+09
   1.90000000E-02   5.33502946E+09   6.60551462E+09   6.60551462E+09   7.23007535E+09   5.73286476E+09   5.73286476E+09
   1.92000000E-02   5.22916482E+09   6.44426321E+09   6.44426321E+09   7.08220784E+09   5.61917418E+09   5.61917418E+09
   1.94000000E-02   5.12419779E+09   6.28548508E+09   6.28548508E+09   6.93530936E+09   5.50634055E+09   5.50634055E+09
   1.96000000E-02   5.02018366E+09   6.12922510E+09   6.12922510E+09   6.78948793E+09   5.39443189E+09   5.39443189E+09
   1.98000000E-02   4.91717370E+09   5.97552185E+09   5.97552185E+09   6.64484452E+09   5.28351157E+09   5.28351157E+09
   2.00000000E-02   4.81521531E+09   5.82440800E+09   5.82440800E+09   6.50147320E+09   5.17363848E+09   5.17363848E+09
   2.02000000E-02   4.71435218E+09   5.67591061E+09   5.67591061E+09   6.35946140E+09   5.06486718E+09   5.06486718E+09
   2.04000000E-02   4.61462446E+09   5.53005142E+09   5.53005142E+09   6.21889016E+09   4.95724804E+09   4.95724804E+09
   2.06000000E-02   4.51606885E+09   5.38684721E+09   5.38684721E+09   6.07983432E+09   4.85082744E+09   4.85082744E+09
   2.08000000E-02   4.41871879E+09   5.24631006E+09   5.24631006E+09   5.94236279E+09   4.74564793E+09   4.74564793E+09
   2.10000000E-02   4.32260459E+09   5.10844763E+09   5.10844763E+09   5.80653874E+09   4.64174831E+09   4.64174831E+09
   2.12000000E-02   4.22775355E+09   4.97326344E+09   4.97326344E+09   5.67241985E+09   4.53916388E+09   4.53916388E+09
   2.14000000E-02   4.13419010E+09   4.84075715E+09   4.84075715E+09   5.54005849E+09   4.43792654E+09   4.43792654E+09
   2.16000000E-02   4.04193594E+09   4.71092478E+09   4.71092478E+09   5.40950201E+09   4.33806491E+09   4.33806491E+09
   2.18000000E-02   3.95101015E+09   4.58375896E+09   4.58375896E+09   5.28079289E+09   4.23960454E+09   4.23960454E+09
   2.20000000E-02   3.86142934E+09   4.45924918E+09   4.45924918E+09   5.15396899E+09   4.14256798E+09   4.14256798E+09
   2.22000000E-02   3.77320772E+09   4.33738199E+09   4.33738199E+09   5.02906372E+09   4.04697498E+09   4.04697498E+09
   2.24000000E-02   3.68635727E+09   4.21814123E+09   4.21814123E+09   4.90610630E+09   3.95284256E+09   3.95284256E+09
   2.26000000E-02   3.60088781E+09   4.10150821E+09   4.10150821E+09   4.78512189E+09   3.86018519E+09   3.86018519E+09
   2.28000000E-02   3.51680716E+09   3.98746191E+09   3.98746191E+09   4.66613184E+09   3.76901489E+09   3.76901489E+09
   2.30000000E-02   3.43412117E+09   3.87597920E+09   3.87597920E+09   4.54915385E+09   3.67934137E+09   3.67934137E+09
   2.32000000E-02   3.35283390E+09   3.76703494E+09   3.76703494E+09   4.43420216E+09   3.59117213E+09   3.59117213E+09
   2.34000000E-02   3.27294766E+09   3.66060222E+09   3.66060222E+09   4.32128775E+09   3.50451257E+09   3.50451257E+09
   2.36000000E-02   3.19446315E+09   3.55665249E+09   3.55665249E+09   4.21041848E+09   3.41936613E+09   3.41936613E+09
   2.38000000E-02   3.11737952E+09   3.45515571E+09   3.45515571E+09   4.10159926E+09   3.33573438E+09   3.33573438E+09
   2.40000000E-02   3.04169446E+09   3.35608048E+09   3.35608048E+09   3.99483225E+09   3.25361713E+09   3.25361713E+09
   2.42000000E-02   2.96740433E+09   3.25939421E+09   3.25939421E+09   3.89011699E+09   3.17301252E+09   3.17301252E+09
   2.44000000E-02   2.89450417E+09   3.16506321E+09   3.16506321E+09   3.78745056E+09   3.09391713E+09   3.09391713E+09
   2.46000000E-02   2.82298784E+09   3.07305285E+09   3.07305285E+09   3.68682773E+09   3.01632606E+09   3.01632606E+09
   2.48000000E-02   2.75284807E+09   2.98332763E+09   2.98332763E+09   3.58824111E+09   2.94023304E+09   2.94023304E+09
   2.50000000E-02   2.68407654E+09   2.89585134E+09   2.89585134E+09   3.49168124E+09   2.86563050E+09   2.86563050E+09
   2.52000000E-02   2.61666393E+09   2.81058712E+09   2.81058712E+09   3.39713682E+09   2.79250968E+09   2.79250968E+09
   2.54000000E-02   2.55060004E+09   2.72749757E+09   2.72749757E+09   3.30459473E+09   2.72086065E+09   2.72086065E+09
   2.56000000E-02   2.48587380E+09   2.64654485E+09   2.64654485E+09   3.21404022E+09   2.65067248E+09   2.65067248E+09
   2.58000000E-02   2.42247333E+09   2.56769076E+09   2.56769076E+09   3.12545703E+09   2.58193322E+09   2.58193322E+09
   2.60000000E-02   2.36038608E+09   2.49089681E+09   2.49089681E+09   3.03882745E+09   2.51463003E+09   2.51463003E+09
   2.62000000E-02   2.29959877E+09   2.41612431E+09   2.41612431E+09   2.95413247E+09   2.44874925E+09   2.44874925E+09
   2.64000000E-02   2.24009753E+09   2.34333442E+09   2.34333442E+09   2.87135191E+09   2.38427642E+09   2.38427642E+09
   2.66000000E-02   2.18186793E+09   2.27248826E+09   2.27248826E+09   2.79046443E+09   2.32119639E+09   2.32119639E+09
   2.68000000E-02   2.12489502E+09   2.20354689E+09   2.20354689E+09   2.71144772E+09   2.25949335E+09   2.25949335E+09
   2.70000000E-02   2.06916338E+09   2.13647146E+09   2.13647146E+09   2.63427853E+09   2.19915090E+09   2.19915090E+09
   2.72000000E-02   2.01465716E+09   2.07122320E+09   2.07122320E+09   2.55893280E+09   2.14015210E+09   2.14015210E+09
   2.74000000E-02   1.96136015E+09   2.00776349E+09   2.00776349E+09   2.48538569E+09   2.08247954E+09   2.08247954E+09
   2.76000000E-02   1.90925577E+09   1.94605391E+09   1.94605391E+09   2.41361172E+09   2.02611535E+09   2.02611535E+09
   2.78000000E-02   1.85832718E+09   1.88605626E+09   1.88605626E+09   2.34358477E+09   1.97104129E+09   1.97104129E+09
   2.80000000E-02   1.80855725E+09   1.82773264E+09   1.82773264E+09   2.27527824E+09   1.91723877E+09   1.91723877E+09
   2.82000000E-02   1.75992862E+09   1.77104543E+09   1.77104543E+09   2.20866504E+09   1.86468888E+09   1.86468888E+09
   2.84000000E-02   1.71242375E+09   1.71595738E+09   1.71595738E+09   2.14371770E+09   1.81337248E+09   1.81337248E+09
   2.86000000E-02   1.66602492E+09   1.66243160E+09   1.66243160E+09   2.08040840E+09   1.76327018E+09   1.76327018E+09
   2.88000000E-02   1.62071430E+09   1.61043159E+09   1.61043159E+09   2.01870905E+09   1.71436242E+09   1.71436242E+09
   2.90000000E-02   1.57647393E+09   1.55992131E+09   1.55992131E+09   1.95859135E+09   1.66662948E+09   1.66662948E+09
   2.92000000E-02   1.53328578E+09   1.51086513E+09   1.51086513E+09   1.90002681E+09   1.62005152E+09   1.62005152E+09
   2.94000000E-02   1.49113178E+09   1.46322790E+09   1.46322790E+09   1.84298681E+09   1.57460861E+09   1.57460861E+09
   2.96000000E-02   1.44999380E+09   1.41697496E+09   1.41697496E+09   1.78744266E+09   1.53028077E+09   1.53028077E+09
   2.98000000E-02   1.40985373E+09   1.37207214E+09   1.37207214E+09   1.73336563E+09   1.48704796E+09   1.48704796E+09
   3.00000000E-02   1.37069346E+09   1.32848581E+09   1.32848581E+09   1.68072700E+09   1.44489017E+09   1.44489017E+09
   3.02000000E-02   1.33249491E+09   1.28618284E+09   1.28618284E+09   1.62949807E+09   1.40378737E+09   1.40378737E+09
   3.04000000E-02   1.29524007E+09   1.24513064E+09   1.24513064E+09   1.57965024E+09   1.36371959E+09   1.36371959E+09
   3.06000000E-02   1.25891096E+09   1.20529720E+09   1.20529720E+09   1.53115500E+09   1.32466691E+09   1.32466691E+09
   3.08000000E-02   1.22348973E+09   1.16665102E+09   1.16665102E+09   1.48398398E+09   1.28660951E+09   1.28660951E+09
   3.10000000E-02   1.18895861E+09   1.12916118E+09   1.12916118E+09   1.43810896E+09   1.24952763E+09   1.24952763E+09
   3.12000000E-02   1.15529992E+09   1.09279735E+09   1.09279735E+09   1.39350195E+09   1.21340166E+09   1.21340166E+09
   3.14000000E-02   1.12249615E+09   1.05752974E+09   1.05752974E+09   1.35013515E+09   1.17821211E+09   1.17821211E+09
   3.16000000E-02   1.09052989E+09   1.02332913E+09   1.02332913E+09   1.30798099E+09   1.14393963E+09   1.14393963E+09
   3.18000000E-02   1.05938390E+09   9.90166891E+08   9.90166891E+08   1.26701218E+09   1.11056503E+09   1.11056503E+09
   3.20000000E-02   1.02904110E+09   9.58014969E+08   9.58014969E+08   1.22720169E+09   1.07806931E+09   1.07806931E+09
   3.22000000E-02   9.99484581E+08   9.26845873E+08   9.26845873E+08   1.18852281E+09   1.04643363E+09   1.04643363E+09
   3.24000000E-02   9.70697594E+08   8.96632692E+08   8.96632692E+08   1.15094911E+09   1.01563936E+09   1.01563936E+09
   3.26000000E-02   9.42663595E+08   8.67349084E+08   8.67349084E+08   1.11445451E+09   9.85668066E+08   9.85668066E+08
   3.28000000E-02   9.15366226E+08   8.38969276E+08   8.38969276E+08   1.07901326E+09   9.56501542E+08   9.56501542E+08
