# TBinMid=0.75 ssec TBinWidth=0.1 ss EBinWidth=0.2MeV Fluence at Earth for this timebin in neutrinos per cm^2
# E(GeV)	NuE	NuMu	NuTau	aNuE	aNuMu	aNuTau
   1.38589050E-13   3.84340107E-16   2.00920196E-16   2.00920196E-16   1.25448444E-16   3.30348785E-16   3.30348785E-16
   2.00000000E-04   4.11648984E+06   3.61712502E+06   3.61712502E+06   2.09588896E+06   3.66113693E+06   3.66113693E+06
   4.00000000E-04   2.09653738E+07   2.06608430E+07   2.06608430E+07   1.19724624E+07   1.88689016E+07   1.88689016E+07
   6.00000000E-04   5.33413421E+07   5.63909036E+07   5.63909036E+07   3.28366889E+07   4.84248007E+07   4.84248007E+07
   8.00000000E-04   1.02127879E+08   1.13453057E+08   1.13453057E+08   6.65160231E+07   9.33693447E+07   9.33693447E+07
   1.00000000E-03   1.67313239E+08   1.92940413E+08   1.92940413E+08   1.14010234E+08   1.53887595E+08   1.53887595E+08
   1.20000000E-03   2.48358849E+08   2.94885271E+08   2.94885271E+08   1.75735350E+08   2.29643899E+08   2.29643899E+08
   1.40000000E-03   3.44394680E+08   4.18568475E+08   4.18568475E+08   2.51674428E+08   3.19962660E+08   3.19962660E+08
   1.60000000E-03   4.54339584E+08   5.62736727E+08   5.62736727E+08   3.41483428E+08   4.23941748E+08   4.23941748E+08
   1.80000000E-03   5.76981664E+08   7.25763695E+08   7.25763695E+08   4.44570585E+08   5.40529700E+08   5.40529700E+08
   2.00000000E-03   7.11034608E+08   9.05772902E+08   9.05772902E+08   5.60158222E+08   6.68580906E+08   6.68580906E+08
   2.20000000E-03   8.55178351E+08   1.10073289E+09   1.10073289E+09   6.87331975E+08   8.06896296E+08   8.06896296E+08
   2.40000000E-03   1.00808893E+09   1.30853139E+09   1.30853139E+09   8.25080537E+08   9.54253899E+08   9.54253899E+08
   2.60000000E-03   1.16846055E+09   1.52703315E+09   1.52703315E+09   9.72328010E+08   1.10943203E+09   1.10943203E+09
   2.80000000E-03   1.33502198E+09   1.75412484E+09   1.75412484E+09   1.12796032E+09   1.27122694E+09   1.27122694E+09
   3.00000000E-03   1.50654849E+09   1.98774951E+09   1.98774951E+09   1.29084683E+09   1.43846629E+09   1.43846629E+09
   3.20000000E-03   1.68187051E+09   2.22593270E+09   2.22593270E+09   1.45985793E+09   1.61001920E+09   1.61001920E+09
   3.40000000E-03   1.85987972E+09   2.46680169E+09   2.46680169E+09   1.63387933E+09   1.78480378E+09   1.78480378E+09
   3.60000000E-03   2.03953297E+09   2.70859919E+09   2.70859919E+09   1.81182358E+09   1.96179253E+09   1.96179253E+09
   3.80000000E-03   2.21985474E+09   2.94969252E+09   2.94969252E+09   1.99263919E+09   2.14001606E+09   2.14001606E+09
   4.00000000E-03   2.39993821E+09   3.18857908E+09   3.18857908E+09   2.17531779E+09   2.31856547E+09   2.31856547E+09
   4.20000000E-03   2.57894537E+09   3.42388890E+09   3.42388890E+09   2.35889961E+09   2.49659357E+09   2.49659357E+09
   4.40000000E-03   2.75610633E+09   3.65438475E+09   3.65438475E+09   2.54247755E+09   2.67331537E+09   2.67331537E+09
   4.60000000E-03   2.93071801E+09   3.87896038E+09   3.87896038E+09   2.72519998E+09   2.84800763E+09   2.84800763E+09
   4.80000000E-03   3.10214232E+09   4.09663724E+09   4.09663724E+09   2.90627260E+09   3.02000808E+09   3.02000808E+09
   5.00000000E-03   3.26980401E+09   4.30656009E+09   4.30656009E+09   3.08495937E+09   3.18871398E+09   3.18871398E+09
   5.20000000E-03   3.43318824E+09   4.50799169E+09   4.50799169E+09   3.26058278E+09   3.35358046E+09   3.35358046E+09
   5.40000000E-03   3.59183790E+09   4.70030687E+09   4.70030687E+09   3.43252349E+09   3.51411852E+09   3.51411852E+09
   5.60000000E-03   3.74535086E+09   4.88298616E+09   4.88298616E+09   3.60021943E+09   3.66989283E+09   3.66989283E+09
   5.80000000E-03   3.89337711E+09   5.05560918E+09   5.05560918E+09   3.76316460E+09   3.82051937E+09   3.82051937E+09
   6.00000000E-03   4.03561584E+09   5.21784779E+09   5.21784779E+09   3.92090745E+09   3.96566300E+09   3.96566300E+09
   6.20000000E-03   4.17181252E+09   5.36945932E+09   5.36945932E+09   4.07304899E+09   4.10503492E+09   4.10503492E+09
   6.40000000E-03   4.30175604E+09   5.51027974E+09   5.51027974E+09   4.21924078E+09   4.23839011E+09   4.23839011E+09
   6.60000000E-03   4.42527582E+09   5.64021706E+09   5.64021706E+09   4.35918267E+09   4.36552475E+09   4.36552475E+09
   6.80000000E-03   4.54223904E+09   5.75924484E+09   5.75924484E+09   4.49262050E+09   4.48627373E+09   4.48627373E+09
   7.00000000E-03   4.65254793E+09   5.86739593E+09   5.86739593E+09   4.61934364E+09   4.60050805E+09   4.60050805E+09
   7.20000000E-03   4.75613711E+09   5.96475647E+09   5.96475647E+09   4.73918261E+09   4.70813243E+09   4.70813243E+09
   7.40000000E-03   4.85297111E+09   6.05146024E+09   6.05146024E+09   4.85200652E+09   4.80908285E+09   4.80908285E+09
   7.60000000E-03   4.94304185E+09   6.12768316E+09   6.12768316E+09   4.95772067E+09   4.90332425E+09   4.90332425E+09
   7.80000000E-03   5.02636641E+09   6.19363823E+09   6.19363823E+09   5.05626405E+09   4.99084826E+09   4.99084826E+09
   8.00000000E-03   5.10298470E+09   6.24957075E+09   6.24957075E+09   5.14760700E+09   5.07167101E+09   5.07167101E+09
   8.20000000E-03   5.17295745E+09   6.29575379E+09   6.29575379E+09   5.23174877E+09   5.14583108E+09   5.14583108E+09
   8.40000000E-03   5.23636413E+09   6.33248405E+09   6.33248405E+09   5.30871531E+09   5.21338747E+09   5.21338747E+09
   8.60000000E-03   5.29330107E+09   6.36007798E+09   6.36007798E+09   5.37855699E+09   5.27441774E+09   5.27441774E+09
   8.80000000E-03   5.34387968E+09   6.37886822E+09   6.37886822E+09   5.44134650E+09   5.32901617E+09   5.32901617E+09
   9.00000000E-03   5.38822477E+09   6.38920029E+09   6.38920029E+09   5.49717677E+09   5.37729204E+09   5.37729204E+09
   9.20000000E-03   5.42647294E+09   6.39142964E+09   6.39142964E+09   5.54615900E+09   5.41936803E+09   5.41936803E+09
   9.40000000E-03   5.45877113E+09   6.38591884E+09   6.38591884E+09   5.58842080E+09   5.45537870E+09   5.45537870E+09
   9.60000000E-03   5.48527521E+09   6.37303512E+09   6.37303512E+09   5.62410440E+09   5.48546902E+09   5.48546902E+09
   9.80000000E-03   5.50614869E+09   6.35314817E+09   6.35314817E+09   5.65336492E+09   5.50979302E+09   5.50979302E+09
   1.00000000E-02   5.52156151E+09   6.32662801E+09   6.32662801E+09   5.67636883E+09   5.52851254E+09   5.52851254E+09
   1.02000000E-02   5.53168896E+09   6.29384329E+09   6.29384329E+09   5.69329239E+09   5.54179605E+09   5.54179605E+09
   1.04000000E-02   5.53671059E+09   6.25515959E+09   6.25515959E+09   5.70432025E+09   5.54981752E+09   5.54981752E+09
   1.06000000E-02   5.53680928E+09   6.21093807E+09   6.21093807E+09   5.70964411E+09   5.55275541E+09   5.55275541E+09
   1.08000000E-02   5.53217038E+09   6.16153415E+09   6.16153415E+09   5.70946152E+09   5.55079171E+09   5.55079171E+09
   1.10000000E-02   5.52298084E+09   6.10729648E+09   6.10729648E+09   5.70397465E+09   5.54411108E+09   5.54411108E+09
   1.12000000E-02   5.50942853E+09   6.04856596E+09   6.04856596E+09   5.69338928E+09   5.53289999E+09   5.53289999E+09
   1.14000000E-02   5.49170152E+09   5.98567495E+09   5.98567495E+09   5.67791376E+09   5.51734601E+09   5.51734601E+09
   1.16000000E-02   5.46998748E+09   5.91894661E+09   5.91894661E+09   5.65775810E+09   5.49763710E+09   5.49763710E+09
   1.18000000E-02   5.44447310E+09   5.84869430E+09   5.84869430E+09   5.63313315E+09   5.47396102E+09   5.47396102E+09
   1.20000000E-02   5.41534359E+09   5.77522118E+09   5.77522118E+09   5.60424978E+09   5.44650468E+09   5.44650468E+09
   1.22000000E-02   5.38278223E+09   5.69881981E+09   5.69881981E+09   5.57131819E+09   5.41545369E+09   5.41545369E+09
   1.24000000E-02   5.34696995E+09   5.61977189E+09   5.61977189E+09   5.53454726E+09   5.38099185E+09   5.38099185E+09
   1.26000000E-02   5.30808495E+09   5.53834810E+09   5.53834810E+09   5.49414396E+09   5.34330076E+09   5.34330076E+09
   1.28000000E-02   5.26630240E+09   5.45480794E+09   5.45480794E+09   5.45031282E+09   5.30255938E+09   5.30255938E+09
   1.30000000E-02   5.22179413E+09   5.36939971E+09   5.36939971E+09   5.40325546E+09   5.25894373E+09   5.25894373E+09
   1.32000000E-02   5.17472839E+09   5.28236049E+09   5.28236049E+09   5.35317016E+09   5.21262661E+09   5.21262661E+09
   1.34000000E-02   5.12526963E+09   5.19391621E+09   5.19391621E+09   5.30025148E+09   5.16377728E+09   5.16377728E+09
   1.36000000E-02   5.07357833E+09   5.10428174E+09   5.10428174E+09   5.24468992E+09   5.11256125E+09   5.11256125E+09
   1.38000000E-02   5.01981078E+09   5.01366105E+09   5.01366105E+09   5.18667166E+09   5.05914011E+09   5.05914011E+09
   1.40000000E-02   4.96411904E+09   4.92224736E+09   4.92224736E+09   5.12637826E+09   5.00367132E+09   5.00367132E+09
   1.42000000E-02   4.90665077E+09   4.83022335E+09   4.83022335E+09   5.06398650E+09   4.94630809E+09   4.94630809E+09
   1.44000000E-02   4.84754915E+09   4.73776140E+09   4.73776140E+09   4.99966816E+09   4.88719924E+09   4.88719924E+09
   1.46000000E-02   4.78695285E+09   4.64502382E+09   4.64502382E+09   4.93358989E+09   4.82648913E+09   4.82648913E+09
   1.48000000E-02   4.72499596E+09   4.55216315E+09   4.55216315E+09   4.86591309E+09   4.76431758E+09   4.76431758E+09
   1.50000000E-02   4.66180796E+09   4.45932244E+09   4.45932244E+09   4.79679381E+09   4.70081982E+09   4.70081982E+09
   1.52000000E-02   4.59751374E+09   4.36663550E+09   4.36663550E+09   4.72638271E+09   4.63612643E+09   4.63612643E+09
   1.54000000E-02   4.53223356E+09   4.27422727E+09   4.27422727E+09   4.65482498E+09   4.57036335E+09   4.57036335E+09
   1.56000000E-02   4.46608311E+09   4.18221409E+09   4.18221409E+09   4.58226033E+09   4.50365189E+09   4.50365189E+09
   1.58000000E-02   4.39917352E+09   4.09070405E+09   4.09070405E+09   4.50882301E+09   4.43610869E+09   4.43610869E+09
   1.60000000E-02   4.33161141E+09   3.99979726E+09   3.99979726E+09   4.43464181E+09   4.36784580E+09   4.36784580E+09
   1.62000000E-02   4.26349890E+09   3.90958621E+09   3.90958621E+09   4.35984007E+09   4.29897069E+09   4.29897069E+09
   1.64000000E-02   4.19493374E+09   3.82015611E+09   3.82015611E+09   4.28453578E+09   4.22958629E+09   4.22958629E+09
   1.66000000E-02   4.12600932E+09   3.73158514E+09   3.73158514E+09   4.20884157E+09   4.15979106E+09   4.15979106E+09
   1.68000000E-02   4.05681477E+09   3.64394483E+09   3.64394483E+09   4.13286484E+09   4.08967904E+09   4.08967904E+09
   1.70000000E-02   3.98743501E+09   3.55730034E+09   3.55730034E+09   4.05670780E+09   4.01933994E+09   4.01933994E+09
   1.72000000E-02   3.91795090E+09   3.47171075E+09   3.47171075E+09   3.98046759E+09   3.94885921E+09   3.94885921E+09
   1.74000000E-02   3.84843923E+09   3.38722942E+09   3.38722942E+09   3.90423636E+09   3.87831812E+09   3.87831812E+09
   1.76000000E-02   3.77897291E+09   3.30390421E+09   3.30390421E+09   3.82810138E+09   3.80779384E+09   3.80779384E+09
   1.78000000E-02   3.70962101E+09   3.22177781E+09   3.22177781E+09   3.75214514E+09   3.73735954E+09   3.73735954E+09
   1.80000000E-02   3.64044888E+09   3.14088801E+09   3.14088801E+09   3.67644551E+09   3.66708452E+09   3.66708452E+09
   1.82000000E-02   3.57151823E+09   3.06126796E+09   3.06126796E+09   3.60107579E+09   3.59703425E+09   3.59703425E+09
   1.84000000E-02   3.50288727E+09   2.98294646E+09   2.98294646E+09   3.52610489E+09   3.52727050E+09   3.52727050E+09
   1.86000000E-02   3.43461076E+09   2.90594818E+09   2.90594818E+09   3.45159746E+09   3.45785147E+09   3.45785147E+09
   1.88000000E-02   3.36674018E+09   2.83029391E+09   2.83029391E+09   3.37761398E+09   3.38883184E+09   3.38883184E+09
   1.90000000E-02   3.29932378E+09   2.75600081E+09   2.75600081E+09   3.30421091E+09   3.32026294E+09   3.32026294E+09
   1.92000000E-02   3.23240671E+09   2.68308264E+09   2.68308264E+09   3.23144084E+09   3.25219279E+09   3.25219279E+09
   1.94000000E-02   3.16603112E+09   2.61154996E+09   2.61154996E+09   3.15935259E+09   3.18466627E+09   3.18466627E+09
   1.96000000E-02   3.10023628E+09   2.54141036E+09   2.54141036E+09   3.08799138E+09   3.11772519E+09   3.11772519E+09
   1.98000000E-02   3.03505864E+09   2.47266863E+09   2.47266863E+09   3.01739894E+09   3.05140839E+09   3.05140839E+09
   2.00000000E-02   2.97053200E+09   2.40532699E+09   2.40532699E+09   2.94761362E+09   2.98575188E+09   2.98575188E+09
   2.02000000E-02   2.90668753E+09   2.33938525E+09   2.33938525E+09   2.87867059E+09   2.92078893E+09   2.92078893E+09
   2.04000000E-02   2.84355396E+09   2.27484098E+09   2.27484098E+09   2.81060189E+09   2.85655016E+09   2.85655016E+09
   2.06000000E-02   2.78115761E+09   2.21168970E+09   2.21168970E+09   2.74343661E+09   2.79306367E+09   2.79306367E+09
   2.08000000E-02   2.71952249E+09   2.14992502E+09   2.14992502E+09   2.67720101E+09   2.73035512E+09   2.73035512E+09
   2.10000000E-02   2.65867046E+09   2.08953880E+09   2.08953880E+09   2.61191862E+09   2.66844782E+09   2.66844782E+09
   2.12000000E-02   2.59862125E+09   2.03052128E+09   2.03052128E+09   2.54761038E+09   2.60736288E+09   2.60736288E+09
   2.14000000E-02   2.53939258E+09   1.97286124E+09   1.97286124E+09   2.48429476E+09   2.54711926E+09   2.54711926E+09
   2.16000000E-02   2.48100027E+09   1.91654611E+09   1.91654611E+09   2.42198788E+09   2.48773385E+09   2.48773385E+09
   2.18000000E-02   2.42345827E+09   1.86156208E+09   1.86156208E+09   2.36070360E+09   2.42922163E+09   2.42922163E+09
   2.20000000E-02   2.36677883E+09   1.80789426E+09   1.80789426E+09   2.30045367E+09   2.37159570E+09   2.37159570E+09
   2.22000000E-02   2.31097250E+09   1.75552673E+09   1.75552673E+09   2.24124780E+09   2.31486738E+09   2.31486738E+09
   2.24000000E-02   2.25604827E+09   1.70444270E+09   1.70444270E+09   2.18309380E+09   2.25904632E+09   2.25904632E+09
   2.26000000E-02   2.20201359E+09   1.65462457E+09   1.65462457E+09   2.12599764E+09   2.20414055E+09   2.20414055E+09
   2.28000000E-02   2.14887453E+09   1.60605401E+09   1.60605401E+09   2.06996360E+09   2.15015659E+09   2.15015659E+09
   2.30000000E-02   2.09663577E+09   1.55871210E+09   1.55871210E+09   2.01499433E+09   2.09709951E+09   2.09709951E+09
   2.32000000E-02   2.04530071E+09   1.51257934E+09   1.51257934E+09   1.96109097E+09   2.04497302E+09   2.04497302E+09
   2.34000000E-02   1.99487154E+09   1.46763578E+09   1.46763578E+09   1.90825319E+09   1.99377953E+09   1.99377953E+09
   2.36000000E-02   1.94534931E+09   1.42386107E+09   1.42386107E+09   1.85647935E+09   1.94352023E+09   1.94352023E+09
   2.38000000E-02   1.89673399E+09   1.38123451E+09   1.38123451E+09   1.80576652E+09   1.89419516E+09   1.89419516E+09
   2.40000000E-02   1.84902451E+09   1.33973514E+09   1.33973514E+09   1.75611060E+09   1.84580327E+09   1.84580327E+09
   2.42000000E-02   1.80221885E+09   1.29934178E+09   1.29934178E+09   1.70750638E+09   1.79834249E+09   1.79834249E+09
   2.44000000E-02   1.75631410E+09   1.26003308E+09   1.26003308E+09   1.65994762E+09   1.75180981E+09   1.75180981E+09
   2.46000000E-02   1.71130649E+09   1.22178758E+09   1.22178758E+09   1.61342712E+09   1.70620129E+09   1.70620129E+09
   2.48000000E-02   1.66719147E+09   1.18458374E+09   1.18458374E+09   1.56793678E+09   1.66151217E+09   1.66151217E+09
   2.50000000E-02   1.62396374E+09   1.14840001E+09   1.14840001E+09   1.52346771E+09   1.61773691E+09   1.61773691E+09
   2.52000000E-02   1.58161732E+09   1.11321483E+09   1.11321483E+09   1.48001022E+09   1.57486921E+09   1.57486921E+09
   2.54000000E-02   1.54014558E+09   1.07900671E+09   1.07900671E+09   1.43755395E+09   1.53290211E+09   1.53290211E+09
   2.56000000E-02   1.49954130E+09   1.04575422E+09   1.04575422E+09   1.39608787E+09   1.49182803E+09   1.49182803E+09
   2.58000000E-02   1.45979671E+09   1.01343605E+09   1.01343605E+09   1.35560040E+09   1.45163878E+09   1.45163878E+09
   2.60000000E-02   1.42090351E+09   9.82031020E+08   9.82031020E+08   1.31607939E+09   1.41232565E+09   1.41232565E+09
   2.62000000E-02   1.38285295E+09   9.51518120E+08   9.51518120E+08   1.27751223E+09   1.37387942E+09   1.37387942E+09
   2.64000000E-02   1.34563585E+09   9.21876523E+08   9.21876523E+08   1.23988587E+09   1.33629042E+09   1.33629042E+09
   2.66000000E-02   1.30924262E+09   8.93085610E+08   8.93085610E+08   1.20318687E+09   1.29954857E+09   1.29954857E+09
   2.68000000E-02   1.27366332E+09   8.65124984E+08   8.65124984E+08   1.16740143E+09   1.26364340E+09   1.26364340E+09
   2.70000000E-02   1.23888769E+09   8.37974492E+08   8.37974492E+08   1.13251546E+09   1.22856412E+09   1.22856412E+09
   2.72000000E-02   1.20490517E+09   8.11614240E+08   8.11614240E+08   1.09851460E+09   1.19429961E+09   1.19429961E+09
   2.74000000E-02   1.17170492E+09   7.86024601E+08   7.86024601E+08   1.06538426E+09   1.16083848E+09   1.16083848E+09
   2.76000000E-02   1.13927588E+09   7.61186234E+08   7.61186234E+08   1.03310965E+09   1.12816910E+09   1.12816910E+09
   2.78000000E-02   1.10760679E+09   7.37080090E+08   7.37080090E+08   1.00167582E+09   1.09627963E+09   1.09627963E+09
   2.80000000E-02   1.07668620E+09   7.13687420E+08   7.13687420E+08   9.71067694E+08   1.06515801E+09   1.06515801E+09
   2.82000000E-02   1.04650250E+09   6.90989789E+08   6.90989789E+08   9.41270081E+08   1.03479207E+09   1.03479207E+09
   2.84000000E-02   1.01704394E+09   6.68969074E+08   6.68969074E+08   9.12267728E+08   1.00516946E+09   1.00516946E+09
   2.86000000E-02   9.88298677E+08   6.47607478E+08   6.47607478E+08   8.84045326E+08   9.76277736E+08   9.76277736E+08
   2.88000000E-02   9.60254765E+08   6.26887529E+08   6.26887529E+08   8.56587545E+08   9.48104369E+08   9.48104369E+08
   2.90000000E-02   9.32900188E+08   6.06792084E+08   6.06792084E+08   8.29879050E+08   9.20636750E+08   9.20636750E+08
   2.92000000E-02   9.06222882E+08   5.87304335E+08   5.87304335E+08   8.03904527E+08   8.93862224E+08   8.93862224E+08
   2.94000000E-02   8.80210746E+08   5.68407809E+08   5.68407809E+08   7.78648701E+08   8.67768106E+08   8.67768106E+08
   2.96000000E-02   8.54851660E+08   5.50086366E+08   5.50086366E+08   7.54096353E+08   8.42341698E+08   8.42341698E+08
   2.98000000E-02   8.30133503E+08   5.32324205E+08   5.32324205E+08   7.30232341E+08   8.17570303E+08   8.17570303E+08
   3.00000000E-02   8.06044168E+08   5.15105861E+08   5.15105861E+08   7.07041611E+08   7.93441247E+08   7.93441247E+08
   3.02000000E-02   7.82571572E+08   4.98416204E+08   4.98416204E+08   6.84509216E+08   7.69941885E+08   7.69941885E+08
   3.04000000E-02   7.59703670E+08   4.82240437E+08   4.82240437E+08   6.62620327E+08   7.47059622E+08   7.47059622E+08
   3.06000000E-02   7.37428469E+08   4.66564098E+08   4.66564098E+08   6.41360248E+08   7.24781921E+08   7.24781921E+08
   3.08000000E-02   7.15734039E+08   4.51373052E+08   4.51373052E+08   6.20714425E+08   7.03096316E+08   7.03096316E+08
   3.10000000E-02   6.94608521E+08   4.36653494E+08   4.36653494E+08   6.00668457E+08   6.81990424E+08   6.81990424E+08
   3.12000000E-02   6.74040138E+08   4.22391943E+08   4.22391943E+08   5.81208108E+08   6.61451953E+08   6.61451953E+08
   3.14000000E-02   6.54017205E+08   4.08575239E+08   4.08575239E+08   5.62319312E+08   6.41468716E+08   6.41468716E+08
   3.16000000E-02   6.34528135E+08   3.95190538E+08   3.95190538E+08   5.43988186E+08   6.22028631E+08   6.22028631E+08
   3.18000000E-02   6.15561449E+08   3.82225313E+08   3.82225313E+08   5.26201032E+08   6.03119740E+08   6.03119740E+08
   3.20000000E-02   5.97105783E+08   3.69667344E+08   3.69667344E+08   5.08944345E+08   5.84730205E+08   5.84730205E+08
   3.22000000E-02   5.79149891E+08   3.57504718E+08   3.57504718E+08   4.92204822E+08   5.66848325E+08   5.66848325E+08
   3.24000000E-02   5.61682655E+08   3.45725820E+08   3.45725820E+08   4.75969361E+08   5.49462534E+08   5.49462534E+08
   3.26000000E-02   5.44693089E+08   3.34319335E+08   3.34319335E+08   4.60225071E+08   5.32561413E+08   5.32561413E+08
   3.28000000E-02   5.28170344E+08   3.23274236E+08   3.23274236E+08   4.44959274E+08   5.16133687E+08   5.16133687E+08
