# TBinMid=0.035 ssec TBinWidth=0.01 ss EBinWidth=0.2MeV Fluence at Earth for this timebin in neutrinos per cm^2
# E(GeV)	NuE	NuMu	NuTau	aNuE	aNuMu	aNuTau
   1.38589050E-13   7.28361719E-24   3.80722366E-24   3.80722366E-24   2.37723776E-24   6.26041338E-24   6.26041338E-24
   2.00000000E-04   1.85383701E+05   1.72844941E+05   1.72844941E+05   7.15042463E+04   1.59151866E+05   1.59151866E+05
   4.00000000E-04   1.53565424E+06   1.96552755E+06   1.96552755E+06   6.83516928E+05   1.32028776E+06   1.32028776E+06
   6.00000000E-04   5.18576907E+06   8.20200694E+06   8.20200694E+06   2.60157841E+06   4.47025699E+06   4.47025699E+06
   8.00000000E-04   1.21162172E+07   2.23515892E+07   2.23515892E+07   6.72624281E+06   1.04801449E+07   1.04801449E+07
   1.00000000E-03   2.31212737E+07   4.79683808E+07   4.79683808E+07   1.40008902E+07   2.00786272E+07   2.00786272E+07
   1.20000000E-03   3.88041327E+07   8.82989802E+07   8.82989802E+07   2.53394641E+07   3.38454228E+07   3.38454228E+07
   1.40000000E-03   5.95838259E+07   1.46030558E+08   1.46030558E+08   4.15725656E+07   5.22133875E+07   5.22133875E+07
   1.60000000E-03   8.57085268E+07   2.23149664E+08   2.23149664E+08   6.34097729E+07   7.54754983E+07   7.54754983E+07
   1.80000000E-03   1.17272370E+08   3.20884978E+08   3.20884978E+08   9.14157194E+07   1.03794823E+08   1.03794823E+08
   2.00000000E-03   1.54233999E+08   4.39711307E+08   4.39711307E+08   1.25997470E+08   1.37216291E+08   1.37216291E+08
   2.20000000E-03   1.96435654E+08   5.79396289E+08   5.79396289E+08   1.67400913E+08   1.75679460E+08   1.75679460E+08
   2.40000000E-03   2.43621996E+08   7.39075013E+08   7.39075013E+08   2.15714141E+08   2.19031683E+08   2.19031683E+08
   2.60000000E-03   2.95458106E+08   9.17341045E+08   9.17341045E+08   2.70876047E+08   2.67041249E+08   2.67041249E+08
   2.80000000E-03   3.51546319E+08   1.11234508E+09   1.11234508E+09   3.32688671E+08   3.19410180E+08   3.19410180E+08
   3.00000000E-03   4.11441649E+08   1.32189475E+09   1.32189475E+09   4.00832030E+08   3.75786445E+08   3.75786445E+08
   3.20000000E-03   4.74665707E+08   1.54355089E+09   1.54355089E+09   4.74880430E+08   4.35775436E+08   4.35775436E+08
   3.40000000E-03   5.40719050E+08   1.77471711E+09   1.77471711E+09   5.54319449E+08   4.98950596E+08   4.98950596E+08
   3.60000000E-03   6.09091993E+08   2.01272067E+09   2.01272067E+09   6.38562941E+08   5.64863120E+08   5.64863120E+08
   3.80000000E-03   6.79273916E+08   2.25488336E+09   2.25488336E+09   7.26969569E+08   6.33050723E+08   6.33050723E+08
   4.00000000E-03   7.50761161E+08   2.49858221E+09   2.49858221E+09   8.18858517E+08   7.03045437E+08   7.03045437E+08
   4.20000000E-03   8.23063612E+08   2.74129976E+09   2.74129976E+09   9.13524088E+08   7.74380479E+08   7.74380479E+08
   4.40000000E-03   8.95710060E+08   2.98066456E+09   2.98066456E+09   1.01024905E+09   8.46596213E+08   8.46596213E+08
   4.60000000E-03   9.68252477E+08   3.21448232E+09   3.21448232E+09   1.10831658E+09   9.19245234E+08   9.19245234E+08
   4.80000000E-03   1.04026931E+09   3.44075869E+09   3.44075869E+09   1.20702083E+09   9.91896657E+08   9.91896657E+08
   5.00000000E-03   1.11136788E+09   3.65771448E+09   3.65771448E+09   1.30567602E+09   1.06413963E+09   1.06413963E+09
   5.20000000E-03   1.18118608E+09   3.86379424E+09   3.86379424E+09   1.40362416E+09   1.13558617E+09   1.13558617E+09
   5.40000000E-03   1.24939331E+09   4.05766915E+09   4.05766915E+09   1.50024143E+09   1.20587334E+09   1.20587334E+09
   5.60000000E-03   1.31569096E+09   4.23823516E+09   4.23823516E+09   1.59494333E+09   1.27466486E+09   1.27466486E+09
   5.80000000E-03   1.37981232E+09   4.40460706E+09   4.40460706E+09   1.68718862E+09   1.34165221E+09   1.34165221E+09
   6.00000000E-03   1.44152218E+09   4.55610949E+09   4.55610949E+09   1.77648217E+09   1.40655531E+09   1.40655531E+09
   6.20000000E-03   1.50061595E+09   4.69226540E+09   4.69226540E+09   1.86237695E+09   1.46912268E+09   1.46912268E+09
   6.40000000E-03   1.55691873E+09   4.81278268E+09   4.81278268E+09   1.94447503E+09   1.52913141E+09   1.52913141E+09
   6.60000000E-03   1.61028397E+09   4.91753948E+09   4.91753948E+09   2.02242789E+09   1.58638672E+09   1.58638672E+09
   6.80000000E-03   1.66059209E+09   5.00656877E+09   5.00656877E+09   2.09593605E+09   1.64072132E+09   1.64072132E+09
   7.00000000E-03   1.70774896E+09   5.08004246E+09   5.08004246E+09   2.16474811E+09   1.69199452E+09   1.69199452E+09
   7.20000000E-03   1.75168428E+09   5.13825546E+09   5.13825546E+09   2.22865935E+09   1.74009122E+09   1.74009122E+09
   7.40000000E-03   1.79234990E+09   5.18161001E+09   5.18161001E+09   2.28750994E+09   1.78492068E+09   1.78492068E+09
   7.60000000E-03   1.82971821E+09   5.21060042E+09   5.21060042E+09   2.34118275E+09   1.82641531E+09   1.82641531E+09
   7.80000000E-03   1.86378043E+09   5.22579852E+09   5.22579852E+09   2.38960101E+09   1.86452923E+09   1.86452923E+09
   8.00000000E-03   1.89454499E+09   5.22783983E+09   5.22783983E+09   2.43272572E+09   1.89923691E+09   1.89923691E+09
   8.20000000E-03   1.92203588E+09   5.21741065E+09   5.21741065E+09   2.47055298E+09   1.93053169E+09   1.93053169E+09
   8.40000000E-03   1.94629117E+09   5.19523610E+09   5.19523610E+09   2.50311117E+09   1.95842432E+09   1.95842432E+09
   8.60000000E-03   1.96736144E+09   5.16206911E+09   5.16206911E+09   2.53045816E+09   1.98294152E+09   1.98294152E+09
   8.80000000E-03   1.98530841E+09   5.11868050E+09   5.11868050E+09   2.55267848E+09   2.00412451E+09   2.00412451E+09
   9.00000000E-03   2.00020357E+09   5.06584997E+09   5.06584997E+09   2.56988056E+09   2.02202762E+09   2.02202762E+09
   9.20000000E-03   2.01212686E+09   5.00435815E+09   5.00435815E+09   2.58219395E+09   2.03671693E+09   2.03671693E+09
   9.40000000E-03   2.02116555E+09   4.93497956E+09   4.93497956E+09   2.58976677E+09   2.04826890E+09   2.04826890E+09
   9.60000000E-03   2.02741306E+09   4.85847653E+09   4.85847653E+09   2.59276306E+09   2.05676915E+09   2.05676915E+09
   9.80000000E-03   2.03096791E+09   4.77559393E+09   4.77559393E+09   2.59136046E+09   2.06231118E+09   2.06231118E+09
   1.00000000E-02   2.03193281E+09   4.68705474E+09   4.68705474E+09   2.58574784E+09   2.06499531E+09   2.06499531E+09
   1.02000000E-02   2.03041372E+09   4.59355640E+09   4.59355640E+09   2.57612315E+09   2.06492750E+09   2.06492750E+09
   1.04000000E-02   2.02651907E+09   4.49576783E+09   4.49576783E+09   2.56269145E+09   2.06221841E+09   2.06221841E+09
   1.06000000E-02   2.02035898E+09   4.39432705E+09   4.39432705E+09   2.54566295E+09   2.05698240E+09   2.05698240E+09
   1.08000000E-02   2.01204463E+09   4.28983948E+09   4.28983948E+09   2.52525133E+09   2.04933663E+09   2.04933663E+09
   1.10000000E-02   2.00168758E+09   4.18287662E+09   4.18287662E+09   2.50167214E+09   2.03940031E+09   2.03940031E+09
   1.12000000E-02   1.98939929E+09   4.07397534E+09   4.07397534E+09   2.47514135E+09   2.02729388E+09   2.02729388E+09
   1.14000000E-02   1.97529060E+09   3.96363747E+09   3.96363747E+09   2.44587403E+09   2.01313836E+09   2.01313836E+09
   1.16000000E-02   1.95947126E+09   3.85232978E+09   3.85232978E+09   2.41408319E+09   1.99705470E+09   1.99705470E+09
   1.18000000E-02   1.94204959E+09   3.74048433E+09   3.74048433E+09   2.37997872E+09   1.97916323E+09   1.97916323E+09
   1.20000000E-02   1.92313211E+09   3.62849897E+09   3.62849897E+09   2.34376648E+09   1.95958313E+09   1.95958313E+09
   1.22000000E-02   1.90282324E+09   3.51673817E+09   3.51673817E+09   2.30564750E+09   1.93843200E+09   1.93843200E+09
   1.24000000E-02   1.88122507E+09   3.40553400E+09   3.40553400E+09   2.26581726E+09   1.91582542E+09   1.91582542E+09
   1.26000000E-02   1.85843711E+09   3.29518725E+09   3.29518725E+09   2.22446513E+09   1.89187665E+09   1.89187665E+09
   1.28000000E-02   1.83455613E+09   3.18596870E+09   3.18596870E+09   2.18177385E+09   1.86669625E+09   1.86669625E+09
   1.30000000E-02   1.80967599E+09   3.07812045E+09   3.07812045E+09   2.13791917E+09   1.84039187E+09   1.84039187E+09
   1.32000000E-02   1.78388751E+09   2.97185736E+09   2.97185736E+09   2.09306947E+09   1.81306801E+09   1.81306801E+09
   1.34000000E-02   1.75727842E+09   2.86736847E+09   2.86736847E+09   2.04738558E+09   1.78482581E+09   1.78482581E+09
   1.36000000E-02   1.72993322E+09   2.76481857E+09   2.76481857E+09   2.00102056E+09   1.75576294E+09   1.75576294E+09
   1.38000000E-02   1.70193316E+09   2.66434964E+09   2.66434964E+09   1.95411961E+09   1.72597341E+09   1.72597341E+09
   1.40000000E-02   1.67335622E+09   2.56608234E+09   2.56608234E+09   1.90682004E+09   1.69554755E+09   1.69554755E+09
   1.42000000E-02   1.64427707E+09   2.47011754E+09   2.47011754E+09   1.85925123E+09   1.66457190E+09   1.66457190E+09
   1.44000000E-02   1.61476708E+09   2.37653775E+09   2.37653775E+09   1.81153469E+09   1.63312918E+09   1.63312918E+09
   1.46000000E-02   1.58489435E+09   2.28540852E+09   2.28540852E+09   1.76378419E+09   1.60129827E+09   1.60129827E+09
   1.48000000E-02   1.55472370E+09   2.19677983E+09   2.19677983E+09   1.71610581E+09   1.56915422E+09   1.56915422E+09
   1.50000000E-02   1.52431675E+09   2.11068738E+09   2.11068738E+09   1.66859815E+09   1.53676825E+09   1.53676825E+09
   1.52000000E-02   1.49373194E+09   2.02715391E+09   2.02715391E+09   1.62135248E+09   1.50420780E+09   1.50420780E+09
   1.54000000E-02   1.46302458E+09   1.94619036E+09   1.94619036E+09   1.57445298E+09   1.47153656E+09   1.47153656E+09
   1.56000000E-02   1.43224694E+09   1.86779705E+09   1.86779705E+09   1.52797692E+09   1.43881455E+09   1.43881455E+09
   1.58000000E-02   1.40144830E+09   1.79196473E+09   1.79196473E+09   1.48199491E+09   1.40609818E+09   1.40609818E+09
   1.60000000E-02   1.37067504E+09   1.71867566E+09   1.71867566E+09   1.43657120E+09   1.37344035E+09   1.37344035E+09
   1.62000000E-02   1.33997067E+09   1.64790449E+09   1.64790449E+09   1.39176384E+09   1.34089050E+09   1.34089050E+09
   1.64000000E-02   1.30937599E+09   1.57961924E+09   1.57961924E+09   1.34762505E+09   1.30849474E+09   1.30849474E+09
   1.66000000E-02   1.27892910E+09   1.51378211E+09   1.51378211E+09   1.30420143E+09   1.27629595E+09   1.27629595E+09
   1.68000000E-02   1.24866553E+09   1.45035021E+09   1.45035021E+09   1.26153427E+09   1.24433385E+09   1.24433385E+09
   1.70000000E-02   1.21861833E+09   1.38927637E+09   1.38927637E+09   1.21965977E+09   1.21264515E+09   1.21264515E+09
   1.72000000E-02   1.18881812E+09   1.33050972E+09   1.33050972E+09   1.17860938E+09   1.18126364E+09   1.18126364E+09
   1.74000000E-02   1.15929322E+09   1.27399635E+09   1.27399635E+09   1.13841004E+09   1.15022031E+09   1.15022031E+09
   1.76000000E-02   1.13006973E+09   1.21967986E+09   1.21967986E+09   1.09908445E+09   1.11954347E+09   1.11954347E+09
   1.78000000E-02   1.10117160E+09   1.16750184E+09   1.16750184E+09   1.06065130E+09   1.08925884E+09   1.08925884E+09
   1.80000000E-02   1.07262075E+09   1.11740240E+09   1.11740240E+09   1.02312560E+09   1.05938969E+09   1.05938969E+09
   1.82000000E-02   1.04443713E+09   1.06932049E+09   1.06932049E+09   9.86518869E+08   1.02995696E+09   1.02995696E+09
   1.84000000E-02   1.01663883E+09   1.02319439E+09   1.02319439E+09   9.50839389E+08   1.00097933E+09   1.00097933E+09
   1.86000000E-02   9.89242145E+08   9.78961960E+08   9.78961960E+08   9.16092455E+08   9.72473401E+08   9.72473401E+08
   1.88000000E-02   9.62261682E+08   9.36560983E+08   9.36560983E+08   8.82280589E+08   9.44453725E+08   9.44453725E+08
   1.90000000E-02   9.35710422E+08   8.95929433E+08   8.95929433E+08   8.49403762E+08   9.16932973E+08   9.16932973E+08
   1.92000000E-02   9.09599810E+08   8.57005701E+08   8.57005701E+08   8.17459597E+08   8.89922013E+08   8.89922013E+08
   1.94000000E-02   8.83939838E+08   8.19728813E+08   8.19728813E+08   7.86443575E+08   8.63430020E+08   8.63430020E+08
   1.96000000E-02   8.58739113E+08   7.84038606E+08   7.84038606E+08   7.56349220E+08   8.37464573E+08   8.37464573E+08
   1.98000000E-02   8.34004938E+08   7.49875887E+08   7.49875887E+08   7.27168283E+08   8.12031753E+08   8.12031753E+08
   2.00000000E-02   8.09743383E+08   7.17182568E+08   7.17182568E+08   6.98890909E+08   7.87136234E+08   7.87136234E+08
   2.02000000E-02   7.85959356E+08   6.85901777E+08   6.85901777E+08   6.71505804E+08   7.62781378E+08   7.62781378E+08
   2.04000000E-02   7.62656667E+08   6.55977955E+08   6.55977955E+08   6.45000388E+08   7.38969317E+08   7.38969317E+08
   2.06000000E-02   7.39838100E+08   6.27356930E+08   6.27356930E+08   6.19360936E+08   7.15701041E+08   7.15701041E+08
   2.08000000E-02   7.17505473E+08   5.99985985E+08   5.99985985E+08   5.94572717E+08   6.92976476E+08   6.92976476E+08
   2.10000000E-02   6.95659699E+08   5.73813899E+08   5.73813899E+08   5.70620120E+08   6.70794562E+08   6.70794562E+08
   2.12000000E-02   6.74300846E+08   5.48790986E+08   5.48790986E+08   5.47486776E+08   6.49153327E+08   6.49153327E+08
   2.14000000E-02   6.53428194E+08   5.24869118E+08   5.24869118E+08   5.25155663E+08   6.28049958E+08   6.28049958E+08
   2.16000000E-02   6.33040288E+08   5.02001738E+08   5.02001738E+08   5.03609218E+08   6.07480868E+08   6.07480868E+08
   2.18000000E-02   6.13134991E+08   4.80143867E+08   4.80143867E+08   4.82829428E+08   5.87441760E+08   5.87441760E+08
   2.20000000E-02   5.93709532E+08   4.59252101E+08   4.59252101E+08   4.62797920E+08   5.67927688E+08   5.67927688E+08
   2.22000000E-02   5.74760560E+08   4.39284598E+08   4.39284598E+08   4.43496046E+08   5.48933116E+08   5.48933116E+08
   2.24000000E-02   5.56284180E+08   4.20201065E+08   4.20201065E+08   4.24904954E+08   5.30451972E+08   5.30451972E+08
   2.26000000E-02   5.38276006E+08   4.01962737E+08   4.01962737E+08   4.07005665E+08   5.12477700E+08   5.12477700E+08
   2.28000000E-02   5.20731194E+08   3.84532352E+08   3.84532352E+08   3.89779131E+08   4.95003311E+08   4.95003311E+08
   2.30000000E-02   5.03644491E+08   3.67874120E+08   3.67874120E+08   3.73206297E+08   4.78021428E+08   4.78021428E+08
   2.32000000E-02   4.87010262E+08   3.51953692E+08   3.51953692E+08   3.57268154E+08   4.61524328E+08   4.61524328E+08
   2.34000000E-02   4.70822534E+08   3.36738123E+08   3.36738123E+08   3.41945785E+08   4.45503988E+08   4.45503988E+08
   2.36000000E-02   4.55075027E+08   3.22195840E+08   3.22195840E+08   3.27220413E+08   4.29952120E+08   4.29952120E+08
   2.38000000E-02   4.39761187E+08   3.08296598E+08   3.08296598E+08   3.13073434E+08   4.14860208E+08   4.14860208E+08
   2.40000000E-02   4.24874212E+08   2.95011443E+08   2.95011443E+08   2.99486460E+08   4.00219544E+08   4.00219544E+08
   2.42000000E-02   4.10407088E+08   2.82312669E+08   2.82312669E+08   2.86441344E+08   3.86021256E+08   3.86021256E+08
   2.44000000E-02   3.96352610E+08   2.70173780E+08   2.70173780E+08   2.73920209E+08   3.72256344E+08   3.72256344E+08
   2.46000000E-02   3.82703413E+08   2.58569445E+08   2.58569445E+08   2.61905477E+08   3.58915701E+08   3.58915701E+08
   2.48000000E-02   3.69451989E+08   2.47475457E+08   2.47475457E+08   2.50379882E+08   3.45990143E+08   3.45990143E+08
   2.50000000E-02   3.56590717E+08   2.36868694E+08   2.36868694E+08   2.39326497E+08   3.33470431E+08   3.33470431E+08
   2.52000000E-02   3.44111881E+08   2.26727075E+08   2.26727075E+08   2.28728742E+08   3.21347295E+08   3.21347295E+08
   2.54000000E-02   3.32007687E+08   2.17029518E+08   2.17029518E+08   2.18570402E+08   3.09611453E+08   3.09611453E+08
   2.56000000E-02   3.20270290E+08   2.07755905E+08   2.07755905E+08   2.08835637E+08   2.98253631E+08   2.98253631E+08
   2.58000000E-02   3.08891801E+08   1.98887038E+08   1.98887038E+08   1.99508987E+08   2.87264580E+08   2.87264580E+08
   2.60000000E-02   2.97864312E+08   1.90404602E+08   1.90404602E+08   1.90575384E+08   2.76635093E+08   2.76635093E+08
   2.62000000E-02   2.87179906E+08   1.82291129E+08   1.82291129E+08   1.82020155E+08   2.66356016E+08   2.66356016E+08
   2.64000000E-02   2.76830674E+08   1.74529960E+08   1.74529960E+08   1.73829021E+08   2.56418267E+08   2.56418267E+08
   2.66000000E-02   2.66808725E+08   1.67105209E+08   1.67105209E+08   1.65988107E+08   2.46812844E+08   2.46812844E+08
   2.68000000E-02   2.57106203E+08   1.60001730E+08   1.60001730E+08   1.58483933E+08   2.37530838E+08   2.37530838E+08
   2.70000000E-02   2.47715294E+08   1.53205083E+08   1.53205083E+08   1.51303423E+08   2.28563443E+08   2.28563443E+08
   2.72000000E-02   2.38628235E+08   1.46701504E+08   1.46701504E+08   1.44433894E+08   2.19901963E+08   2.19901963E+08
   2.74000000E-02   2.29837331E+08   1.40477870E+08   1.40477870E+08   1.37863059E+08   2.11537823E+08   2.11537823E+08
   2.76000000E-02   2.21334954E+08   1.34521672E+08   1.34521672E+08   1.31579021E+08   2.03462573E+08   2.03462573E+08
   2.78000000E-02   2.13113559E+08   1.28820987E+08   1.28820987E+08   1.25570269E+08   1.95667898E+08   1.95667898E+08
   2.80000000E-02   2.05165685E+08   1.23364450E+08   1.23364450E+08   1.19825672E+08   1.88145619E+08   1.88145619E+08
   2.82000000E-02   1.97483967E+08   1.18141225E+08   1.18141225E+08   1.14334474E+08   1.80887703E+08   1.80887703E+08
   2.84000000E-02   1.90061138E+08   1.13140982E+08   1.13140982E+08   1.09086288E+08   1.73886263E+08   1.73886263E+08
   2.86000000E-02   1.82890035E+08   1.08353876E+08   1.08353876E+08   1.04071087E+08   1.67133563E+08   1.67133563E+08
   2.88000000E-02   1.75963605E+08   1.03770516E+08   1.03770516E+08   9.92791977E+07   1.60622021E+08   1.60622021E+08
   2.90000000E-02   1.69274909E+08   9.93819506E+07   9.93819506E+07   9.47012946E+07   1.54344210E+08   1.54344210E+08
   2.92000000E-02   1.62817122E+08   9.51796428E+07   9.51796428E+07   9.03283901E+07   1.48292864E+08   1.48292864E+08
   2.94000000E-02   1.56583542E+08   9.11554509E+07   9.11554509E+07   8.61518267E+07   1.42460874E+08   1.42460874E+08
   2.96000000E-02   1.50567590E+08   8.73016092E+07   8.73016092E+07   8.21632696E+07   1.36841291E+08   1.36841291E+08
   2.98000000E-02   1.44762809E+08   8.36107100E+07   8.36107100E+07   7.83546973E+07   1.31427329E+08   1.31427329E+08
   3.00000000E-02   1.39162874E+08   8.00756857E+07   8.00756857E+07   7.47183938E+07   1.26212360E+08   1.26212360E+08
   3.02000000E-02   1.33761584E+08   7.66897928E+07   7.66897928E+07   7.12469396E+07   1.21189921E+08   1.21189921E+08
   3.04000000E-02   1.28552870E+08   7.34465957E+07   7.34465957E+07   6.79332033E+07   1.16353706E+08   1.16353706E+08
   3.06000000E-02   1.23530793E+08   7.03399520E+07   7.03399520E+07   6.47703330E+07   1.11697569E+08   1.11697569E+08
   3.08000000E-02   1.18689546E+08   6.73639979E+07   6.73639979E+07   6.17517479E+07   1.07215524E+08   1.07215524E+08
   3.10000000E-02   1.14023452E+08   6.45131351E+07   6.45131351E+07   5.88711293E+07   1.02901741E+08   1.02901741E+08
   3.12000000E-02   1.09526967E+08   6.17820175E+07   6.17820175E+07   5.61224129E+07   9.87505462E+07   9.87505462E+07
   3.14000000E-02   1.05194677E+08   5.91655393E+07   5.91655393E+07   5.34997800E+07   9.47564204E+07   9.47564204E+07
   3.16000000E-02   1.01021300E+08   5.66588233E+07   5.66588233E+07   5.09976492E+07   9.09139962E+07   9.09139962E+07
   3.18000000E-02   9.70016834E+07   5.42572097E+07   5.42572097E+07   4.86106690E+07   8.72180563E+07   8.72180563E+07
   3.20000000E-02   9.31308038E+07   5.19562460E+07   5.19562460E+07   4.63337089E+07   8.36635318E+07   8.36635318E+07
   3.22000000E-02   8.94037667E+07   4.97516767E+07   4.97516767E+07   4.41618525E+07   8.02454997E+07   8.02454997E+07
   3.24000000E-02   8.58158048E+07   4.76394342E+07   4.76394342E+07   4.20903890E+07   7.69591804E+07   7.69591804E+07
   3.26000000E-02   8.23622764E+07   4.56156296E+07   4.56156296E+07   4.01148067E+07   7.37999350E+07   7.37999350E+07
   3.28000000E-02   7.90386643E+07   4.36765444E+07   4.36765444E+07   3.82307847E+07   7.07632636E+07   7.07632636E+07
