# TBinMid=1.75 ssec TBinWidth=0.1 ss EBinWidth=0.2MeV Fluence at Earth for this timebin in neutrinos per cm^2
# E(GeV)	NuE	NuMu	NuTau	aNuE	aNuMu	aNuTau
   1.38589050E-13   9.37359310E-16   4.89991896E-16   4.89991896E-16   4.68286492E-15   1.23322126E-14   1.23322126E-14
   2.00000000E-04   4.04914862E+06   3.23515747E+06   3.23515747E+06   2.13463526E+06   4.24300701E+06   4.24300701E+06
   4.00000000E-04   1.99203495E+07   1.77113621E+07   1.77113621E+07   1.08668544E+07   1.94826879E+07   1.94826879E+07
   6.00000000E-04   4.95814486E+07   4.71649593E+07   4.71649593E+07   2.80104728E+07   4.67636673E+07   4.67636673E+07
   8.00000000E-04   9.33524866E+07   9.32486206E+07   9.32486206E+07   5.44420033E+07   8.60244961E+07   8.60244961E+07
   1.00000000E-03   1.50828862E+08   1.56435189E+08   1.56435189E+08   9.05155585E+07   1.36749694E+08   1.36749694E+08
   1.20000000E-03   2.21206100E+08   2.36419806E+08   2.36419806E+08   1.36233117E+08   1.98183357E+08   1.98183357E+08
   1.40000000E-03   3.03447961E+08   3.32366011E+08   3.32366011E+08   1.91345618E+08   2.69436054E+08   2.69436054E+08
   1.60000000E-03   3.96387381E+08   4.43074720E+08   4.43074720E+08   2.55421853E+08   3.49547685E+08   3.49547685E+08
   1.80000000E-03   4.98792007E+08   5.67106933E+08   5.67106933E+08   3.27898878E+08   4.37527764E+08   4.37527764E+08
   2.00000000E-03   6.09408683E+08   7.02875492E+08   7.02875492E+08   4.08120394E+08   5.32382514E+08   5.32382514E+08
   2.20000000E-03   7.26994368E+08   8.48714714E+08   8.48714714E+08   4.95366708E+08   6.33133607E+08   6.33133607E+08
   2.40000000E-03   8.50337832E+08   1.00293351E+09   1.00293351E+09   5.88878431E+08   7.38831269E+08   7.38831269E+08
   2.60000000E-03   9.78274836E+08   1.16385586E+09   1.16385586E+09   6.87875368E+08   8.48563428E+08   8.48563428E+08
   2.80000000E-03   1.10969856E+09   1.32985131E+09   1.32985131E+09   7.91571623E+08   9.61461992E+08   9.61461992E+08
   3.00000000E-03   1.24356654E+09   1.49935775E+09   1.49935775E+09   8.99187649E+08   1.07670700E+09   1.07670700E+09
   3.20000000E-03   1.37890491E+09   1.67089779E+09   1.67089779E+09   1.00995981E+09   1.19352919E+09   1.19352919E+09
   3.40000000E-03   1.51481072E+09   1.84309027E+09   1.84309027E+09   1.12314793E+09   1.31121128E+09   1.31121128E+09
   3.60000000E-03   1.65045263E+09   2.01465763E+09   2.01465763E+09   1.23804107E+09   1.42908844E+09   1.42908844E+09
   3.80000000E-03   1.78507056E+09   2.18443017E+09   2.18443017E+09   1.35396201E+09   1.54654791E+09   1.54654791E+09
   4.00000000E-03   1.91797432E+09   2.35134770E+09   2.35134770E+09   1.47027046E+09   1.66302813E+09   1.66302813E+09
   4.20000000E-03   2.04854172E+09   2.51445915E+09   2.51445915E+09   1.58636535E+09   1.77801751E+09   1.77801751E+09
   4.40000000E-03   2.17621607E+09   2.67292064E+09   2.67292064E+09   1.70168628E+09   1.89105274E+09   1.89105274E+09
   4.60000000E-03   2.30050342E+09   2.82599228E+09   2.82599228E+09   1.81571426E+09   2.00171701E+09   2.00171701E+09
   4.80000000E-03   2.42096947E+09   2.97303405E+09   2.97303405E+09   1.92797200E+09   2.10963798E+09   2.10963798E+09
   5.00000000E-03   2.53723643E+09   3.11350106E+09   3.11350106E+09   2.03802355E+09   2.21448568E+09   2.21448568E+09
   5.20000000E-03   2.64897966E+09   3.24693821E+09   3.24693821E+09   2.14547377E+09   2.31597028E+09   2.31597028E+09
   5.40000000E-03   2.75592440E+09   3.37297462E+09   3.37297462E+09   2.24996730E+09   2.41383992E+09   2.41383992E+09
   5.60000000E-03   2.85784244E+09   3.49131790E+09   3.49131790E+09   2.35118745E+09   2.50787841E+09   2.50787841E+09
   5.80000000E-03   2.95454884E+09   3.60174829E+09   3.60174829E+09   2.44885474E+09   2.59790308E+09   2.59790308E+09
   6.00000000E-03   3.04589872E+09   3.70411282E+09   3.70411282E+09   2.54272543E+09   2.68376255E+09   2.68376255E+09
   6.20000000E-03   3.13178421E+09   3.79831961E+09   3.79831961E+09   2.63258984E+09   2.76533460E+09   2.76533460E+09
   6.40000000E-03   3.21213137E+09   3.88433232E+09   3.88433232E+09   2.71827064E+09   2.84252407E+09   2.84252407E+09
   6.60000000E-03   3.28689737E+09   3.96216468E+09   3.96216468E+09   2.79962107E+09   2.91526089E+09   2.91526089E+09
   6.80000000E-03   3.35606771E+09   4.03187539E+09   4.03187539E+09   2.87652317E+09   2.98349809E+09   2.98349809E+09
   7.00000000E-03   3.41965360E+09   4.09356317E+09   4.09356317E+09   2.94888592E+09   3.04720997E+09   3.04720997E+09
   7.20000000E-03   3.47768946E+09   4.14736211E+09   4.14736211E+09   3.01664350E+09   3.10639028E+09   3.10639028E+09
   7.40000000E-03   3.53023059E+09   4.19343723E+09   4.19343723E+09   3.07975347E+09   3.16105056E+09   3.16105056E+09
   7.60000000E-03   3.57735094E+09   4.23198043E+09   4.23198043E+09   3.13819507E+09   3.21121846E+09   3.21121846E+09
   7.80000000E-03   3.61914104E+09   4.26320659E+09   4.26320659E+09   3.19196747E+09   3.25693628E+09   3.25693628E+09
   8.00000000E-03   3.65570602E+09   4.28735007E+09   4.28735007E+09   3.24108820E+09   3.29825946E+09   3.29825946E+09
   8.20000000E-03   3.68716382E+09   4.30466133E+09   4.30466133E+09   3.28559150E+09   3.33525524E+09   3.33525524E+09
   8.40000000E-03   3.71364348E+09   4.31540397E+09   4.31540397E+09   3.32552682E+09   3.36800136E+09   3.36800136E+09
   8.60000000E-03   3.73528356E+09   4.31985192E+09   4.31985192E+09   3.36095735E+09   3.39658484E+09   3.39658484E+09
   8.80000000E-03   3.75223068E+09   4.31828689E+09   4.31828689E+09   3.39195863E+09   3.42110088E+09   3.42110088E+09
   9.00000000E-03   3.76463816E+09   4.31099608E+09   4.31099608E+09   3.41861725E+09   3.44165176E+09   3.44165176E+09
   9.20000000E-03   3.77266480E+09   4.29827011E+09   4.29827011E+09   3.44102955E+09   3.45834587E+09   3.45834587E+09
   9.40000000E-03   3.77647370E+09   4.28040112E+09   4.28040112E+09   3.45930046E+09   3.47129681E+09   3.47129681E+09
   9.60000000E-03   3.77623124E+09   4.25768110E+09   4.25768110E+09   3.47354237E+09   3.48062250E+09   3.48062250E+09
   9.80000000E-03   3.77210610E+09   4.23040042E+09   4.23040042E+09   3.48387409E+09   3.48644439E+09   3.48644439E+09
   1.00000000E-02   3.76426840E+09   4.19884645E+09   4.19884645E+09   3.49041990E+09   3.48888676E+09   3.48888676E+09
   1.02000000E-02   3.75288889E+09   4.16330247E+09   4.16330247E+09   3.49330855E+09   3.48807603E+09   3.48807603E+09
   1.04000000E-02   3.73813825E+09   4.12404662E+09   4.12404662E+09   3.49267248E+09   3.48414014E+09   3.48414014E+09
   1.06000000E-02   3.72018643E+09   4.08135102E+09   4.08135102E+09   3.48864700E+09   3.47720797E+09   3.47720797E+09
   1.08000000E-02   3.69920208E+09   4.03548105E+09   4.03548105E+09   3.48136958E+09   3.46740884E+09   3.46740884E+09
   1.10000000E-02   3.67535202E+09   3.98669472E+09   3.98669472E+09   3.47097911E+09   3.45487203E+09   3.45487203E+09
   1.12000000E-02   3.64880078E+09   3.93524212E+09   3.93524212E+09   3.45761536E+09   3.43972634E+09   3.43972634E+09
   1.14000000E-02   3.61971021E+09   3.88136502E+09   3.88136502E+09   3.44141835E+09   3.42209972E+09   3.42209972E+09
   1.16000000E-02   3.58823908E+09   3.82529652E+09   3.82529652E+09   3.42252788E+09   3.40211890E+09   3.40211890E+09
   1.18000000E-02   3.55454283E+09   3.76726083E+09   3.76726083E+09   3.40108299E+09   3.37990910E+09   3.37990910E+09
   1.20000000E-02   3.51877325E+09   3.70747305E+09   3.70747305E+09   3.37722161E+09   3.35559372E+09   3.35559372E+09
   1.22000000E-02   3.48107828E+09   3.64613906E+09   3.64613906E+09   3.35108010E+09   3.32929411E+09   3.32929411E+09
   1.24000000E-02   3.44160181E+09   3.58345547E+09   3.58345547E+09   3.32279298E+09   3.30112934E+09   3.30112934E+09
   1.26000000E-02   3.40048352E+09   3.51960963E+09   3.51960963E+09   3.29249253E+09   3.27121602E+09   3.27121602E+09
   1.28000000E-02   3.35785876E+09   3.45477964E+09   3.45477964E+09   3.26030862E+09   3.23966812E+09   3.23966812E+09
   1.30000000E-02   3.31385842E+09   3.38913447E+09   3.38913447E+09   3.22636838E+09   3.20659684E+09   3.20659684E+09
   1.32000000E-02   3.26860892E+09   3.32283403E+09   3.32283403E+09   3.19079604E+09   3.17211048E+09   3.17211048E+09
   1.34000000E-02   3.22223210E+09   3.25602935E+09   3.25602935E+09   3.15371275E+09   3.13631434E+09   3.13631434E+09
   1.36000000E-02   3.17484520E+09   3.18886277E+09   3.18886277E+09   3.11523639E+09   3.09931062E+09   3.09931062E+09
   1.38000000E-02   3.12656089E+09   3.12146810E+09   3.12146810E+09   3.07548147E+09   3.06119840E+09   3.06119840E+09
   1.40000000E-02   3.07748723E+09   3.05397085E+09   3.05397085E+09   3.03455905E+09   3.02207356E+09   3.02207356E+09
   1.42000000E-02   3.02772773E+09   2.98648849E+09   2.98648849E+09   2.99257659E+09   2.98202873E+09   2.98202873E+09
   1.44000000E-02   2.97738135E+09   2.91913066E+09   2.91913066E+09   2.94963794E+09   2.94115331E+09   2.94115331E+09
   1.46000000E-02   2.92654259E+09   2.85199946E+09   2.85199946E+09   2.90584327E+09   2.89953343E+09   2.89953343E+09
   1.48000000E-02   2.87530153E+09   2.78518968E+09   2.78518968E+09   2.86128904E+09   2.85725197E+09   2.85725197E+09
   1.50000000E-02   2.82374388E+09   2.71878911E+09   2.71878911E+09   2.81606800E+09   2.81438854E+09   2.81438854E+09
   1.52000000E-02   2.77195111E+09   2.65287876E+09   2.65287876E+09   2.77026917E+09   2.77101955E+09   2.77101955E+09
   1.54000000E-02   2.72000050E+09   2.58753321E+09   2.58753321E+09   2.72397787E+09   2.72721821E+09   2.72721821E+09
   1.56000000E-02   2.66796522E+09   2.52282083E+09   2.52282083E+09   2.67727573E+09   2.68305455E+09   2.68305455E+09
   1.58000000E-02   2.61591447E+09   2.45880406E+09   2.45880406E+09   2.63024073E+09   2.63859550E+09   2.63859550E+09
   1.60000000E-02   2.56391355E+09   2.39553971E+09   2.39553971E+09   2.58294722E+09   2.59390493E+09   2.59390493E+09
   1.62000000E-02   2.51202399E+09   2.33307921E+09   2.33307921E+09   2.53546604E+09   2.54904366E+09   2.54904366E+09
   1.64000000E-02   2.46030362E+09   2.27146890E+09   2.27146890E+09   2.48786446E+09   2.50406960E+09   2.50406960E+09
   1.66000000E-02   2.40880674E+09   2.21075026E+09   2.21075026E+09   2.44020638E+09   2.45903772E+09   2.45903772E+09
   1.68000000E-02   2.35758418E+09   2.15096018E+09   2.15096018E+09   2.39255229E+09   2.41400019E+09   2.41400019E+09
   1.70000000E-02   2.30668343E+09   2.09213121E+09   2.09213121E+09   2.34495940E+09   2.36900641E+09   2.36900641E+09
   1.72000000E-02   2.25614879E+09   2.03429182E+09   2.03429182E+09   2.29748170E+09   2.32410309E+09   2.32410309E+09
   1.74000000E-02   2.20602143E+09   1.97746658E+09   1.97746658E+09   2.25017006E+09   2.27933433E+09   2.27933433E+09
   1.76000000E-02   2.15633953E+09   1.92167648E+09   1.92167648E+09   2.20307230E+09   2.23474166E+09   2.23474166E+09
   1.78000000E-02   2.10713842E+09   1.86693906E+09   1.86693906E+09   2.15623327E+09   2.19036418E+09   2.19036418E+09
   1.80000000E-02   2.05845064E+09   1.81326868E+09   1.81326868E+09   2.10969497E+09   2.14623855E+09   2.14623855E+09
   1.82000000E-02   2.01030610E+09   1.76067670E+09   1.76067670E+09   2.06349660E+09   2.10239916E+09   2.10239916E+09
   1.84000000E-02   1.96273216E+09   1.70917168E+09   1.70917168E+09   2.01767469E+09   2.05887813E+09   2.05887813E+09
   1.86000000E-02   1.91575377E+09   1.65875959E+09   1.65875959E+09   1.97226317E+09   2.01570543E+09   2.01570543E+09
   1.88000000E-02   1.86939353E+09   1.60944397E+09   1.60944397E+09   1.92729346E+09   1.97290893E+09   1.97290893E+09
   1.90000000E-02   1.82367184E+09   1.56122611E+09   1.56122611E+09   1.88279459E+09   1.93051450E+09   1.93051450E+09
   1.92000000E-02   1.77860700E+09   1.51410521E+09   1.51410521E+09   1.83879325E+09   1.88854608E+09   1.88854608E+09
   1.94000000E-02   1.73421527E+09   1.46807855E+09   1.46807855E+09   1.79531393E+09   1.84702573E+09   1.84702573E+09
   1.96000000E-02   1.69051102E+09   1.42314163E+09   1.42314163E+09   1.75237895E+09   1.80597375E+09   1.80597375E+09
   1.98000000E-02   1.64750678E+09   1.37928833E+09   1.37928833E+09   1.71000862E+09   1.76540869E+09   1.76540869E+09
   2.00000000E-02   1.60521336E+09   1.33651101E+09   1.33651101E+09   1.66822127E+09   1.72534749E+09   1.72534749E+09
   2.02000000E-02   1.56363994E+09   1.29480070E+09   1.29480070E+09   1.62703337E+09   1.68580550E+09   1.68580550E+09
   2.04000000E-02   1.52279415E+09   1.25414716E+09   1.25414716E+09   1.58645960E+09   1.64679656E+09   1.64679656E+09
   2.06000000E-02   1.48268216E+09   1.21453901E+09   1.21453901E+09   1.54651293E+09   1.60833310E+09   1.60833310E+09
   2.08000000E-02   1.44330874E+09   1.17596389E+09   1.17596389E+09   1.50720473E+09   1.57042614E+09   1.57042614E+09
   2.10000000E-02   1.40467739E+09   1.13840848E+09   1.13840848E+09   1.46854480E+09   1.53308542E+09   1.53308542E+09
   2.12000000E-02   1.36679035E+09   1.10185868E+09   1.10185868E+09   1.43054151E+09   1.49631944E+09   1.49631944E+09
   2.14000000E-02   1.32964872E+09   1.06629962E+09   1.06629962E+09   1.39320181E+09   1.46013548E+09   1.46013548E+09
   2.16000000E-02   1.29325254E+09   1.03171582E+09   1.03171582E+09   1.35653136E+09   1.42453973E+09   1.42453973E+09
   2.18000000E-02   1.25760081E+09   9.98091230E+08   9.98091230E+08   1.32053457E+09   1.38953730E+09   1.38953730E+09
   2.20000000E-02   1.22269160E+09   9.65409299E+08   9.65409299E+08   1.28521467E+09   1.35513230E+09   1.35513230E+09
   2.22000000E-02   1.18852210E+09   9.33653073E+08   9.33653073E+08   1.25057379E+09   1.32132785E+09   1.32132785E+09
   2.24000000E-02   1.15508865E+09   9.02805242E+08   9.02805242E+08   1.21661302E+09   1.28812621E+09   1.28812621E+09
   2.26000000E-02   1.12238685E+09   8.72848205E+08   8.72848205E+08   1.18333246E+09   1.25552875E+09   1.25552875E+09
   2.28000000E-02   1.09041159E+09   8.43764129E+08   8.43764129E+08   1.15073131E+09   1.22353605E+09   1.22353605E+09
   2.30000000E-02   1.05915709E+09   8.15535001E+08   8.15535001E+08   1.11880789E+09   1.19214792E+09   1.19214792E+09
   2.32000000E-02   1.02861699E+09   7.88142676E+08   7.88142676E+08   1.08755973E+09   1.16136348E+09   1.16136348E+09
   2.34000000E-02   9.98784343E+08   7.61568924E+08   7.61568924E+08   1.05698361E+09   1.13118115E+09   1.13118115E+09
   2.36000000E-02   9.69651708E+08   7.35795472E+08   7.35795472E+08   1.02707559E+09   1.10159875E+09   1.10159875E+09
   2.38000000E-02   9.41211175E+08   7.10804040E+08   7.10804040E+08   9.97831109E+08   1.07261350E+09   1.07261350E+09
   2.40000000E-02   9.13454408E+08   6.86576380E+08   6.86576380E+08   9.69244987E+08   1.04422206E+09   1.04422206E+09
   2.42000000E-02   8.86372686E+08   6.63094308E+08   6.63094308E+08   9.41311494E+08   1.01642061E+09   1.01642061E+09
   2.44000000E-02   8.59956942E+08   6.40339732E+08   6.40339732E+08   9.14024387E+08   9.89204837E+08   9.89204837E+08
   2.46000000E-02   8.34197796E+08   6.18294682E+08   6.18294682E+08   8.87376951E+08   9.62569986E+08   9.62569986E+08
   2.48000000E-02   8.09085593E+08   5.96941331E+08   5.96941331E+08   8.61362043E+08   9.36510902E+08   9.36510902E+08
   2.50000000E-02   7.84610430E+08   5.76262023E+08   5.76262023E+08   8.35972125E+08   9.11022050E+08   9.11022050E+08
   2.52000000E-02   7.60762192E+08   5.56239287E+08   5.56239287E+08   8.11199302E+08   8.86097554E+08   8.86097554E+08
   2.54000000E-02   7.37530576E+08   5.36855862E+08   5.36855862E+08   7.87035358E+08   8.61731216E+08   8.61731216E+08
   2.56000000E-02   7.14905122E+08   5.18094706E+08   5.18094706E+08   7.63471785E+08   8.37916553E+08   8.37916553E+08
   2.58000000E-02   6.92875235E+08   4.99939019E+08   4.99939019E+08   7.40499818E+08   8.14646816E+08   8.14646816E+08
   2.60000000E-02   6.71430214E+08   4.82372247E+08   4.82372247E+08   7.18110463E+08   7.91915019E+08   7.91915019E+08
   2.62000000E-02   6.50559268E+08   4.65378100E+08   4.65378100E+08   6.96294523E+08   7.69713960E+08   7.69713960E+08
   2.64000000E-02   6.30251544E+08   4.48940560E+08   4.48940560E+08   6.75042626E+08   7.48036247E+08   7.48036247E+08
   2.66000000E-02   6.10496142E+08   4.33043888E+08   4.33043888E+08   6.54345251E+08   7.26874316E+08   7.26874316E+08
   2.68000000E-02   5.91282136E+08   4.17672633E+08   4.17672633E+08   6.34192749E+08   7.06220451E+08   7.06220451E+08
   2.70000000E-02   5.72598592E+08   4.02811636E+08   4.02811636E+08   6.14575368E+08   6.86066807E+08   6.86066807E+08
   2.72000000E-02   5.54434581E+08   3.88446038E+08   3.88446038E+08   5.95483270E+08   6.66405425E+08   6.66405425E+08
   2.74000000E-02   5.36779200E+08   3.74561282E+08   3.74561282E+08   5.76906556E+08   6.47228250E+08   6.47228250E+08
   2.76000000E-02   5.19621579E+08   3.61143116E+08   3.61143116E+08   5.58835279E+08   6.28527148E+08   6.28527148E+08
   2.78000000E-02   5.02950901E+08   3.48177594E+08   3.48177594E+08   5.41259466E+08   6.10293920E+08   6.10293920E+08
   2.80000000E-02   4.86756410E+08   3.35651080E+08   3.35651080E+08   5.24169129E+08   5.92520318E+08   5.92520318E+08
   2.82000000E-02   4.71027421E+08   3.23550249E+08   3.23550249E+08   5.07554286E+08   5.75198057E+08   5.75198057E+08
   2.84000000E-02   4.55753335E+08   3.11862082E+08   3.11862082E+08   4.91404971E+08   5.58318829E+08   5.58318829E+08
   2.86000000E-02   4.40923647E+08   3.00573871E+08   3.00573871E+08   4.75711248E+08   5.41874316E+08   5.41874316E+08
   2.88000000E-02   4.26527950E+08   2.89673215E+08   2.89673215E+08   4.60463225E+08   5.25856197E+08   5.25856197E+08
   2.90000000E-02   4.12555951E+08   2.79148016E+08   2.79148016E+08   4.45651062E+08   5.10256166E+08   5.10256166E+08
   2.92000000E-02   3.98997472E+08   2.68986483E+08   2.68986483E+08   4.31264986E+08   4.95065933E+08   4.95065933E+08
   2.94000000E-02   3.85842459E+08   2.59177124E+08   2.59177124E+08   4.17295296E+08   4.80277241E+08   4.80277241E+08
   2.96000000E-02   3.73080988E+08   2.49708745E+08   2.49708745E+08   4.03732375E+08   4.65881869E+08   4.65881869E+08
   2.98000000E-02   3.60703270E+08   2.40570446E+08   2.40570446E+08   3.90566697E+08   4.51871645E+08   4.51871645E+08
   3.00000000E-02   3.48699655E+08   2.31751616E+08   2.31751616E+08   3.77788836E+08   4.38238448E+08   4.38238448E+08
   3.02000000E-02   3.37060639E+08   2.23241935E+08   2.23241935E+08   3.65389469E+08   4.24974218E+08   4.24974218E+08
   3.04000000E-02   3.25776864E+08   2.15031361E+08   2.15031361E+08   3.53359388E+08   4.12070965E+08   4.12070965E+08
   3.06000000E-02   3.14839123E+08   2.07110133E+08   2.07110133E+08   3.41689501E+08   3.99520768E+08   3.99520768E+08
   3.08000000E-02   3.04238366E+08   1.99468762E+08   1.99468762E+08   3.30370838E+08   3.87315786E+08   3.87315786E+08
   3.10000000E-02   2.93965695E+08   1.92098028E+08   1.92098028E+08   3.19394557E+08   3.75448262E+08   3.75448262E+08
   3.12000000E-02   2.84012372E+08   1.84988975E+08   1.84988975E+08   3.08751947E+08   3.63910524E+08   3.63910524E+08
   3.14000000E-02   2.74369821E+08   1.78132906E+08   1.78132906E+08   2.98434432E+08   3.52694995E+08   3.52694995E+08
   3.16000000E-02   2.65029625E+08   1.71521379E+08   1.71521379E+08   2.88433574E+08   3.41794190E+08   3.41794190E+08
   3.18000000E-02   2.55983528E+08   1.65146198E+08   1.65146198E+08   2.78741074E+08   3.31200725E+08   3.31200725E+08
   3.20000000E-02   2.47223438E+08   1.58999413E+08   1.58999413E+08   2.69348778E+08   3.20907318E+08   3.20907318E+08
   3.22000000E-02   2.38741428E+08   1.53073310E+08   1.53073310E+08   2.60248674E+08   3.10906789E+08   3.10906789E+08
   3.24000000E-02   2.30529730E+08   1.47360410E+08   1.47360410E+08   2.51432900E+08   3.01192069E+08   3.01192069E+08
   3.26000000E-02   2.22580742E+08   1.41853459E+08   1.41853459E+08   2.42893737E+08   2.91756193E+08   2.91756193E+08
   3.28000000E-02   2.14887024E+08   1.36545429E+08   1.36545429E+08   2.34623619E+08   2.82592309E+08   2.82592309E+08
