# TBinMid=0.075 ssec TBinWidth=0.01 ss EBinWidth=0.2MeV Fluence at Earth for this timebin in neutrinos per cm^2
# E(GeV)	NuE	NuMu	NuTau	aNuE	aNuMu	aNuTau
   1.38589050E-13   1.89929224E-22   9.92780491E-23   9.92780491E-23   1.51135794E-22   3.98013428E-22   3.98013428E-22
   2.00000000E-04   2.61137488E+05   2.78401560E+05   2.78401560E+05   8.78574259E+04   2.13514661E+05   2.13514661E+05
   4.00000000E-04   1.96003391E+06   2.67665414E+06   2.67665414E+06   7.09138164E+05   1.55480165E+06   1.55480165E+06
   6.00000000E-04   6.23990126E+06   9.94432330E+06   9.94432330E+06   2.46819211E+06   4.88615207E+06   4.88615207E+06
   8.00000000E-04   1.39723029E+07   2.48367398E+07   2.48367398E+07   6.05132367E+06   1.08859084E+07   1.08859084E+07
   1.00000000E-03   2.57901456E+07   4.97687951E+07   4.97687951E+07   1.21888201E+07   2.00844077E+07   2.00844077E+07
   1.20000000E-03   4.21180830E+07   8.66559408E+07   8.66559408E+07   2.16129289E+07   3.28839895E+07   3.28839895E+07
   1.40000000E-03   6.32012105E+07   1.36855124E+08   1.36855124E+08   3.50206471E+07   4.95734644E+07   4.95734644E+07
   1.60000000E-03   8.91318228E+07   2.01164668E+08   2.01164668E+08   5.30437022E+07   7.03400543E+07   7.03400543E+07
   1.80000000E-03   1.19874029E+08   2.79859329E+08   2.79859329E+08   7.62260764E+07   9.52800233E+07   9.52800233E+07
   2.00000000E-03   1.55286131E+08   3.72745498E+08   3.72745498E+08   1.05008598E+08   1.24408548E+08   1.24408548E+08
   2.20000000E-03   1.95140750E+08   4.79226676E+08   4.79226676E+08   1.39719788E+08   1.57669070E+08   1.57669070E+08
   2.40000000E-03   2.39142767E+08   5.98372649E+08   5.98372649E+08   1.80572014E+08   1.94942235E+08   1.94942235E+08
   2.60000000E-03   2.86945162E+08   7.28987996E+08   7.28987996E+08   2.27662032E+08   2.36054433E+08   2.36054433E+08
   2.80000000E-03   3.38162881E+08   8.69677121E+08   8.69677121E+08   2.80975001E+08   2.80785936E+08   2.80785936E+08
   3.00000000E-03   3.92384875E+08   1.01890406E+09   1.01890406E+09   3.40391197E+08   3.28878606E+08   3.28878606E+08
   3.20000000E-03   4.49184449E+08   1.17504606E+09   1.17504606E+09   4.05694692E+08   3.80043142E+08   3.80043142E+08
   3.40000000E-03   5.08128072E+08   1.33644060E+09   1.33644060E+09   4.76583403E+08   4.33965841E+08   4.33965841E+08
   3.60000000E-03   5.68782811E+08   1.50142557E+09   1.50142557E+09   5.52679980E+08   4.90314857E+08   4.90314857E+08
   3.80000000E-03   6.30722498E+08   1.66837310E+09   1.66837310E+09   6.33543111E+08   5.48745931E+08   5.48745931E+08
   4.00000000E-03   6.93532798E+08   1.83571715E+09   1.83571715E+09   7.18678888E+08   6.08907614E+08   6.08907614E+08
   4.20000000E-03   7.56815286E+08   2.00197551E+09   2.00197551E+09   8.07551945E+08   6.70445952E+08   6.70445952E+08
   4.40000000E-03   8.20190652E+08   2.16576658E+09   2.16576658E+09   8.99596165E+08   7.33008668E+08   7.33008668E+08
   4.60000000E-03   8.83301150E+08   2.32582170E+09   2.32582170E+09   9.94224773E+08   7.96248842E+08   7.96248842E+08
   4.80000000E-03   9.45812383E+08   2.48099339E+09   2.48099339E+09   1.09083971E+09   8.59828116E+08   8.59828116E+08
   5.00000000E-03   1.00741452E+09   2.63026011E+09   2.63026011E+09   1.18884020E+09   9.23419431E+08   9.23419431E+08
   5.20000000E-03   1.06782301E+09   2.77272816E+09   2.77272816E+09   1.28763044E+09   9.86709348E+08   9.86709348E+08
   5.40000000E-03   1.12677892E+09   2.90763100E+09   2.90763100E+09   1.38662647E+09   1.04939995E+09   1.04939995E+09
   5.60000000E-03   1.18404886E+09   3.03432657E+09   3.03432657E+09   1.48526210E+09   1.11121040E+09   1.11121040E+09
   5.80000000E-03   1.23942467E+09   3.15229297E+09   3.15229297E+09   1.58299402E+09   1.17187808E+09   1.17187808E+09
   6.00000000E-03   1.29272285E+09   3.26112287E+09   3.26112287E+09   1.67930609E+09   1.23115953E+09   1.23115953E+09
   6.20000000E-03   1.34378379E+09   3.36051689E+09   3.36051689E+09   1.77371283E+09   1.28883100E+09   1.28883100E+09
   6.40000000E-03   1.39247087E+09   3.45027632E+09   3.45027632E+09   1.86576213E+09   1.34468878E+09   1.34468878E+09
   6.60000000E-03   1.43866939E+09   3.53029532E+09   3.53029532E+09   1.95503739E+09   1.39854935E+09   1.39854935E+09
   6.80000000E-03   1.48228547E+09   3.60055292E+09   3.60055292E+09   2.04115892E+09   1.45024922E+09   1.45024922E+09
   7.00000000E-03   1.52324485E+09   3.66110486E+09   3.66110486E+09   2.12378486E+09   1.49964471E+09   1.49964471E+09
   7.20000000E-03   1.56149170E+09   3.71207546E+09   3.71207546E+09   2.20261149E+09   1.54661152E+09   1.54661152E+09
   7.40000000E-03   1.59698730E+09   3.75364973E+09   3.75364973E+09   2.27737323E+09   1.59104416E+09   1.59104416E+09
   7.60000000E-03   1.62970889E+09   3.78606564E+09   3.78606564E+09   2.34784210E+09   1.63285531E+09   1.63285531E+09
   7.80000000E-03   1.65964832E+09   3.80960673E+09   3.80960673E+09   2.41382696E+09   1.67197506E+09   1.67197506E+09
   8.00000000E-03   1.68681092E+09   3.82459514E+09   3.82459514E+09   2.47517234E+09   1.70835009E+09   1.70835009E+09
   8.20000000E-03   1.71121428E+09   3.83138502E+09   3.83138502E+09   2.53175718E+09   1.74194282E+09   1.74194282E+09
   8.40000000E-03   1.73288706E+09   3.83035637E+09   3.83035637E+09   2.58349318E+09   1.77273045E+09   1.77273045E+09
   8.60000000E-03   1.75186793E+09   3.82190937E+09   3.82190937E+09   2.63032318E+09   1.80070407E+09   1.80070407E+09
   8.80000000E-03   1.76820450E+09   3.80645915E+09   3.80645915E+09   2.67221929E+09   1.82586768E+09   1.82586768E+09
   9.00000000E-03   1.78195227E+09   3.78443108E+09   3.78443108E+09   2.70918095E+09   1.84823718E+09   1.84823718E+09
   9.20000000E-03   1.79317370E+09   3.75625639E+09   3.75625639E+09   2.74123303E+09   1.86783951E+09   1.86783951E+09
   9.40000000E-03   1.80193732E+09   3.72236842E+09   3.72236842E+09   2.76842374E+09   1.88471161E+09   1.88471161E+09
   9.60000000E-03   1.80831683E+09   3.68319911E+09   3.68319911E+09   2.79082266E+09   1.89889952E+09   1.89889952E+09
   9.80000000E-03   1.81239035E+09   3.63917602E+09   3.63917602E+09   2.80851873E+09   1.91045749E+09   1.91045749E+09
   1.00000000E-02   1.81423964E+09   3.59071970E+09   3.59071970E+09   2.82161829E+09   1.91944705E+09   1.91944705E+09
   1.02000000E-02   1.81394943E+09   3.53824143E+09   3.53824143E+09   2.83024313E+09   1.92593624E+09   1.92593624E+09
   1.04000000E-02   1.81160679E+09   3.48214125E+09   3.48214125E+09   2.83452864E+09   1.92999872E+09   1.92999872E+09
   1.06000000E-02   1.80730051E+09   3.42280642E+09   3.42280642E+09   2.83462198E+09   1.93171303E+09   1.93171303E+09
   1.08000000E-02   1.80112060E+09   3.36061003E+09   3.36061003E+09   2.83068042E+09   1.93116186E+09   1.93116186E+09
   1.10000000E-02   1.79315776E+09   3.29590994E+09   3.29590994E+09   2.82286963E+09   1.92843132E+09   1.92843132E+09
   1.12000000E-02   1.78350296E+09   3.22904804E+09   3.22904804E+09   2.81136219E+09   1.92361035E+09   1.92361035E+09
   1.14000000E-02   1.77224701E+09   3.16034954E+09   3.16034954E+09   2.79633608E+09   1.91679003E+09   1.91679003E+09
   1.16000000E-02   1.75948021E+09   3.09012264E+09   3.09012264E+09   2.77797336E+09   1.90806307E+09   1.90806307E+09
   1.18000000E-02   1.74529202E+09   3.01865828E+09   3.01865828E+09   2.75645889E+09   1.89752324E+09   1.89752324E+09
   1.20000000E-02   1.72977075E+09   2.94623005E+09   2.94623005E+09   2.73197912E+09   1.88526492E+09   1.88526492E+09
   1.22000000E-02   1.71300332E+09   2.87309425E+09   2.87309425E+09   2.70472107E+09   1.87138262E+09   1.87138262E+09
   1.24000000E-02   1.69507502E+09   2.79949009E+09   2.79949009E+09   2.67487131E+09   1.85597058E+09   1.85597058E+09
   1.26000000E-02   1.67606932E+09   2.72563993E+09   2.72563993E+09   2.64261507E+09   1.83912238E+09   1.83912238E+09
   1.28000000E-02   1.65606769E+09   2.65174970E+09   2.65174970E+09   2.60813542E+09   1.82093064E+09   1.82093064E+09
   1.30000000E-02   1.63514945E+09   2.57800928E+09   2.57800928E+09   2.57161259E+09   1.80148668E+09   1.80148668E+09
   1.32000000E-02   1.61339166E+09   2.50459303E+09   2.50459303E+09   2.53322327E+09   1.78088028E+09   1.78088028E+09
   1.34000000E-02   1.59086900E+09   2.43166033E+09   2.43166033E+09   2.49314009E+09   1.75919940E+09   1.75919940E+09
   1.36000000E-02   1.56765371E+09   2.35935618E+09   2.35935618E+09   2.45153112E+09   1.73653001E+09   1.73653001E+09
   1.38000000E-02   1.54381548E+09   2.28781179E+09   2.28781179E+09   2.40855942E+09   1.71295590E+09   1.71295590E+09
   1.40000000E-02   1.51942149E+09   2.21714524E+09   2.21714524E+09   2.36438273E+09   1.68855849E+09   1.68855849E+09
   1.42000000E-02   1.49453626E+09   2.14746213E+09   2.14746213E+09   2.31915312E+09   1.66341674E+09   1.66341674E+09
   1.44000000E-02   1.46922173E+09   2.07885621E+09   2.07885621E+09   2.27301681E+09   1.63760702E+09   1.63760702E+09
   1.46000000E-02   1.44353721E+09   2.01141008E+09   2.01141008E+09   2.22611393E+09   1.61120304E+09   1.61120304E+09
   1.48000000E-02   1.41753937E+09   1.94519580E+09   1.94519580E+09   2.17857842E+09   1.58427574E+09   1.58427574E+09
   1.50000000E-02   1.39128230E+09   1.88027560E+09   1.88027560E+09   2.13053791E+09   1.55689330E+09   1.55689330E+09
   1.52000000E-02   1.36481748E+09   1.81670244E+09   1.81670244E+09   2.08211369E+09   1.52912103E+09   1.52912103E+09
   1.54000000E-02   1.33819386E+09   1.75452070E+09   1.75452070E+09   2.03342066E+09   1.50102144E+09   1.50102144E+09
   1.56000000E-02   1.31145785E+09   1.69376674E+09   1.69376674E+09   1.98456739E+09   1.47265416E+09   1.47265416E+09
   1.58000000E-02   1.28465342E+09   1.63446949E+09   1.63446949E+09   1.93565614E+09   1.44407598E+09   1.44407598E+09
   1.60000000E-02   1.25782209E+09   1.57665107E+09   1.57665107E+09   1.88678293E+09   1.41534086E+09   1.41534086E+09
   1.62000000E-02   1.23100303E+09   1.52032724E+09   1.52032724E+09   1.83803765E+09   1.38649998E+09   1.38649998E+09
   1.64000000E-02   1.20423308E+09   1.46550799E+09   1.46550799E+09   1.78950417E+09   1.35760174E+09   1.35760174E+09
   1.66000000E-02   1.17754686E+09   1.41219802E+09   1.41219802E+09   1.74126050E+09   1.32869184E+09   1.32869184E+09
   1.68000000E-02   1.15097678E+09   1.36039719E+09   1.36039719E+09   1.69337891E+09   1.29981330E+09   1.29981330E+09
   1.70000000E-02   1.12455314E+09   1.31010099E+09   1.31010099E+09   1.64592609E+09   1.27100655E+09   1.27100655E+09
   1.72000000E-02   1.09830418E+09   1.26130097E+09   1.26130097E+09   1.59896336E+09   1.24230947E+09   1.24230947E+09
   1.74000000E-02   1.07225617E+09   1.21398509E+09   1.21398509E+09   1.55254686E+09   1.21375747E+09   1.21375747E+09
   1.76000000E-02   1.04643345E+09   1.16813815E+09   1.16813815E+09   1.50672768E+09   1.18538356E+09   1.18538356E+09
   1.78000000E-02   1.02085855E+09   1.12374212E+09   1.12374212E+09   1.46155213E+09   1.15721842E+09   1.15721842E+09
   1.80000000E-02   9.95552177E+08   1.08077647E+09   1.08077647E+09   1.41706188E+09   1.12929047E+09   1.12929047E+09
   1.82000000E-02   9.70533378E+08   1.03921847E+09   1.03921847E+09   1.37329423E+09   1.10162597E+09   1.10162597E+09
   1.84000000E-02   9.45819548E+08   9.99043480E+08   9.99043480E+08   1.33028226E+09   1.07424909E+09   1.07424909E+09
   1.86000000E-02   9.21426525E+08   9.60225227E+08   9.60225227E+08   1.28805504E+09   1.04718198E+09   1.04718198E+09
   1.88000000E-02   8.97368651E+08   9.22736032E+08   9.22736032E+08   1.24663787E+09   1.02044486E+09   1.02044486E+09
   1.90000000E-02   8.73658842E+08   8.86547047E+08   8.86547047E+08   1.20605246E+09   9.94056118E+08   9.94056118E+08
   1.92000000E-02   8.50308655E+08   8.51628460E+08   8.51628460E+08   1.16631712E+09   9.68032351E+08   9.68032351E+08
   1.94000000E-02   8.27328352E+08   8.17949689E+08   8.17949689E+08   1.12744697E+09   9.42388484E+08   9.42388484E+08
   1.96000000E-02   8.04726964E+08   7.85479556E+08   7.85479556E+08   1.08945414E+09   9.17137832E+08   9.17137832E+08
   1.98000000E-02   7.82512356E+08   7.54186446E+08   7.54186446E+08   1.05234793E+09   8.92292181E+08   8.92292181E+08
   2.00000000E-02   7.60691283E+08   7.24038454E+08   7.24038454E+08   1.01613502E+09   8.67861864E+08   8.67861864E+08
   2.02000000E-02   7.39269457E+08   6.95003515E+08   6.95003515E+08   9.80819635E+08   8.43855840E+08   8.43855840E+08
   2.04000000E-02   7.18251596E+08   6.67049527E+08   6.67049527E+08   9.46403713E+08   8.20281764E+08   8.20281764E+08
   2.06000000E-02   6.97641486E+08   6.40144453E+08   6.40144453E+08   9.12887082E+08   7.97146064E+08   7.97146064E+08
   2.08000000E-02   6.77442033E+08   6.14256421E+08   6.14256421E+08   8.80267612E+08   7.74454004E+08   7.74454004E+08
   2.10000000E-02   6.57655316E+08   5.89353809E+08   5.89353809E+08   8.48541369E+08   7.52209759E+08   7.52209759E+08
   2.12000000E-02   6.38282637E+08   5.65405318E+08   5.65405318E+08   8.17702762E+08   7.30416478E+08   7.30416478E+08
   2.14000000E-02   6.19324570E+08   5.42380043E+08   5.42380043E+08   7.87744684E+08   7.09076347E+08   7.09076347E+08
   2.16000000E-02   6.00781010E+08   5.20247528E+08   5.20247528E+08   7.58658650E+08   6.88190653E+08   6.88190653E+08
   2.18000000E-02   5.82651214E+08   4.98977820E+08   4.98977820E+08   7.30434915E+08   6.67759841E+08   6.67759841E+08
   2.20000000E-02   5.64933848E+08   4.78541512E+08   4.78541512E+08   7.03062607E+08   6.47783575E+08   6.47783575E+08
   2.22000000E-02   5.47627029E+08   4.58909778E+08   4.58909778E+08   6.76529833E+08   6.28260786E+08   6.28260786E+08
   2.24000000E-02   5.30728361E+08   4.40054406E+08   4.40054406E+08   6.50823792E+08   6.09189735E+08   6.09189735E+08
   2.26000000E-02   5.14234977E+08   4.21947827E+08   4.21947827E+08   6.25930880E+08   5.90568052E+08   5.90568052E+08
   2.28000000E-02   4.98143576E+08   4.04563131E+08   4.04563131E+08   6.01836780E+08   5.72392793E+08   5.72392793E+08
   2.30000000E-02   4.82450454E+08   3.87874083E+08   3.87874083E+08   5.78526563E+08   5.54660483E+08   5.54660483E+08
   2.32000000E-02   4.67151541E+08   3.71855142E+08   3.71855142E+08   5.55984764E+08   5.37367159E+08   5.37367159E+08
   2.34000000E-02   4.52242431E+08   3.56481463E+08   3.56481463E+08   5.34195468E+08   5.20508412E+08   5.20508412E+08
   2.36000000E-02   4.37718411E+08   3.41728904E+08   3.41728904E+08   5.13142386E+08   5.04079430E+08   5.04079430E+08
   2.38000000E-02   4.23574495E+08   3.27574029E+08   3.27574029E+08   4.92808920E+08   4.88075032E+08   4.88075032E+08
   2.40000000E-02   4.09805444E+08   3.13994106E+08   3.13994106E+08   4.73178232E+08   4.72489704E+08   4.72489704E+08
   2.42000000E-02   3.96405796E+08   3.00967108E+08   3.00967108E+08   4.54233303E+08   4.57317636E+08   4.57317636E+08
   2.44000000E-02   3.83369892E+08   2.88471701E+08   2.88471701E+08   4.35956989E+08   4.42552751E+08   4.42552751E+08
   2.46000000E-02   3.70691893E+08   2.76487245E+08   2.76487245E+08   4.18332074E+08   4.28188735E+08   4.28188735E+08
   2.48000000E-02   3.58365809E+08   2.64993779E+08   2.64993779E+08   4.01341316E+08   4.14219070E+08   4.14219070E+08
   2.50000000E-02   3.46385516E+08   2.53972015E+08   2.53972015E+08   3.84967491E+08   4.00637055E+08   4.00637055E+08
   2.52000000E-02   3.34744774E+08   2.43403323E+08   2.43403323E+08   3.69193435E+08   3.87435835E+08   3.87435835E+08
   2.54000000E-02   3.23437248E+08   2.33269726E+08   2.33269726E+08   3.54002077E+08   3.74608424E+08   3.74608424E+08
   2.56000000E-02   3.12456525E+08   2.23553876E+08   2.23553876E+08   3.39376476E+08   3.62147725E+08   3.62147725E+08
   2.58000000E-02   3.01796129E+08   2.14239050E+08   2.14239050E+08   3.25299849E+08   3.50046554E+08   3.50046554E+08
   2.60000000E-02   2.91449537E+08   2.05309131E+08   2.05309131E+08   3.11755598E+08   3.38297658E+08   3.38297658E+08
   2.62000000E-02   2.81410190E+08   1.96748592E+08   1.96748592E+08   2.98727335E+08   3.26893732E+08   3.26893732E+08
   2.64000000E-02   2.71671512E+08   1.88542483E+08   1.88542483E+08   2.86198904E+08   3.15827438E+08   3.15827438E+08
   2.66000000E-02   2.62226918E+08   1.80676415E+08   1.80676415E+08   2.74154399E+08   3.05091419E+08   3.05091419E+08
   2.68000000E-02   2.53069826E+08   1.73136542E+08   1.73136542E+08   2.62578182E+08   2.94678313E+08   2.94678313E+08
   2.70000000E-02   2.44193669E+08   1.65909548E+08   1.65909548E+08   2.51454900E+08   2.84580769E+08   2.84580769E+08
   2.72000000E-02   2.35591904E+08   1.58982630E+08   1.58982630E+08   2.40769493E+08   2.74791456E+08   2.74791456E+08
   2.74000000E-02   2.27258021E+08   1.52343479E+08   1.52343479E+08   2.30507206E+08   2.65303078E+08   2.65303078E+08
   2.76000000E-02   2.19185550E+08   1.45980271E+08   1.45980271E+08   2.20653604E+08   2.56108381E+08   2.56108381E+08
   2.78000000E-02   2.11368073E+08   1.39881644E+08   1.39881644E+08   2.11194570E+08   2.47200165E+08   2.47200165E+08
   2.80000000E-02   2.03799227E+08   1.34036686E+08   1.34036686E+08   2.02116320E+08   2.38571292E+08   2.38571292E+08
   2.82000000E-02   1.96472712E+08   1.28434920E+08   1.28434920E+08   1.93405402E+08   2.30214692E+08   2.30214692E+08
   2.84000000E-02   1.89382297E+08   1.23066288E+08   1.23066288E+08   1.85048701E+08   2.22123376E+08   2.22123376E+08
   2.86000000E-02   1.82521824E+08   1.17921135E+08   1.17921135E+08   1.77033441E+08   2.14290434E+08   2.14290434E+08
   2.88000000E-02   1.75885216E+08   1.12990197E+08   1.12990197E+08   1.69347188E+08   2.06709050E+08   2.06709050E+08
   2.90000000E-02   1.69466477E+08   1.08264586E+08   1.08264586E+08   1.61977847E+08   1.99372498E+08   1.99372498E+08
   2.92000000E-02   1.63259701E+08   1.03735774E+08   1.03735774E+08   1.54913664E+08   1.92274156E+08   1.92274156E+08
   2.94000000E-02   1.57259071E+08   9.93955833E+07   9.93955833E+07   1.48143222E+08   1.85407501E+08   1.85407501E+08
   2.96000000E-02   1.51458862E+08   9.52361691E+07   9.52361691E+07   1.41655442E+08   1.78766122E+08   1.78766122E+08
   2.98000000E-02   1.45853450E+08   9.12500102E+07   9.12500102E+07   1.35439576E+08   1.72343713E+08   1.72343713E+08
   3.00000000E-02   1.40437307E+08   8.74298946E+07   8.74298946E+07   1.29485206E+08   1.66134085E+08   1.66134085E+08
   3.02000000E-02   1.35205005E+08   8.37689084E+07   8.37689084E+07   1.23782239E+08   1.60131161E+08   1.60131161E+08
   3.04000000E-02   1.30151219E+08   8.02604236E+07   8.02604236E+07   1.18320905E+08   1.54328983E+08   1.54328983E+08
   3.06000000E-02   1.25270730E+08   7.68980869E+07   7.68980869E+07   1.13091746E+08   1.48721711E+08   1.48721711E+08
   3.08000000E-02   1.20558420E+08   7.36758088E+07   7.36758088E+07   1.08085618E+08   1.43303623E+08   1.43303623E+08
   3.10000000E-02   1.16009280E+08   7.05877532E+07   7.05877532E+07   1.03293679E+08   1.38069120E+08   1.38069120E+08
   3.12000000E-02   1.11618406E+08   6.76283269E+07   6.76283269E+07   9.87073876E+07   1.33012721E+08   1.33012721E+08
   3.14000000E-02   1.07380999E+08   6.47921698E+07   6.47921698E+07   9.43184938E+07   1.28129069E+08   1.28129069E+08
   3.16000000E-02   1.03292369E+08   6.20741458E+07   6.20741458E+07   9.01190343E+07   1.23412926E+08   1.23412926E+08
   3.18000000E-02   9.93479315E+07   5.94693329E+07   5.94693329E+07   8.61013255E+07   1.18859175E+08   1.18859175E+08
   3.20000000E-02   9.55432086E+07   5.69730150E+07   5.69730150E+07   8.22579567E+07   1.14462823E+08   1.14462823E+08
   3.22000000E-02   9.18738283E+07   5.45806735E+07   5.45806735E+07   7.85817834E+07   1.10218991E+08   1.10218991E+08
   3.24000000E-02   8.83355241E+07   5.22879783E+07   5.22879783E+07   7.50659204E+07   1.06122926E+08   1.06122926E+08
   3.26000000E-02   8.49241342E+07   5.00907810E+07   5.00907810E+07   7.17037353E+07   1.02169987E+08   1.02169987E+08
   3.28000000E-02   8.16356007E+07   4.79851066E+07   4.79851066E+07   6.84888410E+07   9.83556555E+07   9.83556555E+07
