# TBinMid=-0.045 ssec TBinWidth=0.01 ss EBinWidth=0.2MeV Fluence at Earth for this timebin in neutrinos per cm^2
# E(GeV)	NuE	NuMu	NuTau	aNuE	aNuMu	aNuTau
   1.38589050E-13   3.66901491E-54   8.07777112E-53   8.07777112E-53   0.00000000E+00   0.00000000E+00   0.00000000E+00
   2.00000000E-04   7.61844917E+00   1.67729187E+02   1.67729187E+02   0.00000000E+00   0.00000000E+00   0.00000000E+00
   4.00000000E-04   4.61961929E+02   1.01706393E+04   1.01706393E+04   0.00000000E+00   0.00000000E+00   0.00000000E+00
   6.00000000E-04   4.64063612E+03   1.02169104E+05   1.02169104E+05   0.00000000E+00   0.00000000E+00   0.00000000E+00
   8.00000000E-04   2.22990345E+04   4.90939669E+05   4.90939669E+05   0.00000000E+00   0.00000000E+00   0.00000000E+00
   1.00000000E-03   7.15033209E+04   1.57423034E+06   1.57423034E+06   0.00000000E+00   0.00000000E+00   0.00000000E+00
   1.20000000E-03   1.77490387E+05   3.90766121E+06   3.90766121E+06   0.00000000E+00   0.00000000E+00   0.00000000E+00
   1.40000000E-03   3.69191602E+05   8.12819062E+06   8.12819062E+06   0.00000000E+00   0.00000000E+00   0.00000000E+00
   1.60000000E-03   6.74705688E+05   1.48544453E+07   1.48544453E+07   0.00000000E+00   0.00000000E+00   0.00000000E+00
   1.80000000E-03   1.11693596E+06   2.45906688E+07   2.45906688E+07   0.00000000E+00   0.00000000E+00   0.00000000E+00
   2.00000000E-03   1.71023032E+06   3.76527472E+07   3.76527472E+07   0.00000000E+00   0.00000000E+00   0.00000000E+00
   2.20000000E-03   2.45843222E+06   5.41252987E+07   5.41252987E+07   0.00000000E+00   0.00000000E+00   0.00000000E+00
   2.40000000E-03   3.35439242E+06   7.38509242E+07   7.38509242E+07   0.00000000E+00   0.00000000E+00   0.00000000E+00
   2.60000000E-03   4.38074791E+06   9.64473565E+07   9.64473565E+07   0.00000000E+00   0.00000000E+00   0.00000000E+00
   2.80000000E-03   5.51164369E+06   1.21345367E+08   1.21345367E+08   0.00000000E+00   0.00000000E+00   0.00000000E+00
   3.00000000E-03   6.71503323E+06   1.47839414E+08   1.47839414E+08   0.00000000E+00   0.00000000E+00   0.00000000E+00
   3.20000000E-03   7.95521543E+06   1.75143495E+08   1.75143495E+08   0.00000000E+00   0.00000000E+00   0.00000000E+00
   3.40000000E-03   9.19532500E+06   2.02445977E+08   2.02445977E+08   0.00000000E+00   0.00000000E+00   0.00000000E+00
   3.60000000E-03   1.03995671E+07   2.28958793E+08   2.28958793E+08   0.00000000E+00   0.00000000E+00   0.00000000E+00
   3.80000000E-03   1.15350626E+07   2.53958073E+08   2.53958073E+08   0.00000000E+00   0.00000000E+00   0.00000000E+00
   4.00000000E-03   1.25732381E+07   2.76814736E+08   2.76814736E+08   0.00000000E+00   0.00000000E+00   0.00000000E+00
   4.20000000E-03   1.34907475E+07   2.97014793E+08   2.97014793E+08   0.00000000E+00   0.00000000E+00   0.00000000E+00
   4.40000000E-03   1.42699556E+07   3.14169983E+08   3.14169983E+08   0.00000000E+00   0.00000000E+00   0.00000000E+00
   4.60000000E-03   1.48990366E+07   3.28019947E+08   3.28019947E+08   0.00000000E+00   0.00000000E+00   0.00000000E+00
   4.80000000E-03   1.53717587E+07   3.38427485E+08   3.38427485E+08   0.00000000E+00   0.00000000E+00   0.00000000E+00
   5.00000000E-03   1.56870292E+07   3.45368537E+08   3.45368537E+08   0.00000000E+00   0.00000000E+00   0.00000000E+00
   5.20000000E-03   1.58482730E+07   3.48918511E+08   3.48918511E+08   0.00000000E+00   0.00000000E+00   0.00000000E+00
   5.40000000E-03   1.58627124E+07   3.49236412E+08   3.49236412E+08   0.00000000E+00   0.00000000E+00   0.00000000E+00
   5.60000000E-03   1.57406037E+07   3.46548045E+08   3.46548045E+08   0.00000000E+00   0.00000000E+00   0.00000000E+00
   5.80000000E-03   1.54944777E+07   3.41129288E+08   3.41129288E+08   0.00000000E+00   0.00000000E+00   0.00000000E+00
   6.00000000E-03   1.51384200E+07   3.33290257E+08   3.33290257E+08   0.00000000E+00   0.00000000E+00   0.00000000E+00
   6.20000000E-03   1.46874159E+07   3.23360866E+08   3.23360866E+08   0.00000000E+00   0.00000000E+00   0.00000000E+00
   6.40000000E-03   1.41567756E+07   3.11678191E+08   3.11678191E+08   0.00000000E+00   0.00000000E+00   0.00000000E+00
   6.60000000E-03   1.35616487E+07   2.98575768E+08   2.98575768E+08   0.00000000E+00   0.00000000E+00   0.00000000E+00
   6.80000000E-03   1.29166302E+07   2.84374921E+08   2.84374921E+08   0.00000000E+00   0.00000000E+00   0.00000000E+00
   7.00000000E-03   1.22354542E+07   2.69378024E+08   2.69378024E+08   0.00000000E+00   0.00000000E+00   0.00000000E+00
   7.20000000E-03   1.15307709E+07   2.53863587E+08   2.53863587E+08   0.00000000E+00   0.00000000E+00   0.00000000E+00
   7.40000000E-03   1.08139976E+07   2.38082972E+08   2.38082972E+08   0.00000000E+00   0.00000000E+00   0.00000000E+00
   7.60000000E-03   1.00952338E+07   2.22258536E+08   2.22258536E+08   0.00000000E+00   0.00000000E+00   0.00000000E+00
   7.80000000E-03   9.38323159E+06   2.06582963E+08   2.06582963E+08   0.00000000E+00   0.00000000E+00   0.00000000E+00
   8.00000000E-03   8.68540945E+06   1.91219582E+08   1.91219582E+08   0.00000000E+00   0.00000000E+00   0.00000000E+00
   8.20000000E-03   8.00790178E+06   1.76303447E+08   1.76303447E+08   0.00000000E+00   0.00000000E+00   0.00000000E+00
   8.40000000E-03   7.35563402E+06   1.61943000E+08   1.61943000E+08   0.00000000E+00   0.00000000E+00   0.00000000E+00
   8.60000000E-03   6.73241634E+06   1.48222124E+08   1.48222124E+08   0.00000000E+00   0.00000000E+00   0.00000000E+00
   8.80000000E-03   6.14104896E+06   1.35202470E+08   1.35202470E+08   0.00000000E+00   0.00000000E+00   0.00000000E+00
   9.00000000E-03   5.58343364E+06   1.22925908E+08   1.22925908E+08   0.00000000E+00   0.00000000E+00   0.00000000E+00
   9.20000000E-03   5.06068660E+06   1.11417013E+08   1.11417013E+08   0.00000000E+00   0.00000000E+00   0.00000000E+00
   9.40000000E-03   4.57324942E+06   1.00685505E+08   1.00685505E+08   0.00000000E+00   0.00000000E+00   0.00000000E+00
   9.60000000E-03   4.12099516E+06   9.07285920E+07   9.07285920E+07   0.00000000E+00   0.00000000E+00   0.00000000E+00
   9.80000000E-03   3.70332764E+06   8.15331465E+07   8.15331465E+07   0.00000000E+00   0.00000000E+00   0.00000000E+00
   1.00000000E-02   3.31927271E+06   7.30777222E+07   7.30777222E+07   0.00000000E+00   0.00000000E+00   0.00000000E+00
   1.02000000E-02   2.96756066E+06   6.53343646E+07   6.53343646E+07   0.00000000E+00   0.00000000E+00   0.00000000E+00
   1.04000000E-02   2.64669943E+06   5.82702243E+07   5.82702243E+07   0.00000000E+00   0.00000000E+00   0.00000000E+00
   1.06000000E-02   2.35503865E+06   5.18489668E+07   5.18489668E+07   0.00000000E+00   0.00000000E+00   0.00000000E+00
   1.08000000E-02   2.09082488E+06   4.60319875E+07   4.60319875E+07   0.00000000E+00   0.00000000E+00   0.00000000E+00
   1.10000000E-02   1.85224831E+06   4.07794415E+07   4.07794415E+07   0.00000000E+00   0.00000000E+00   0.00000000E+00
   1.12000000E-02   1.63748178E+06   3.60511019E+07   3.60511019E+07   0.00000000E+00   0.00000000E+00   0.00000000E+00
   1.14000000E-02   1.44471262E+06   3.18070605E+07   3.18070605E+07   0.00000000E+00   0.00000000E+00   0.00000000E+00
   1.16000000E-02   1.27216813E+06   2.80082889E+07   2.80082889E+07   0.00000000E+00   0.00000000E+00   0.00000000E+00
   1.18000000E-02   1.11813536E+06   2.46170751E+07   2.46170751E+07   0.00000000E+00   0.00000000E+00   0.00000000E+00
   1.20000000E-02   9.80976061E+05   2.15973505E+07   2.15973505E+07   0.00000000E+00   0.00000000E+00   0.00000000E+00
   1.22000000E-02   8.59137269E+05   1.89149251E+07   1.89149251E+07   0.00000000E+00   0.00000000E+00   0.00000000E+00
   1.24000000E-02   7.51158414E+05   1.65376426E+07   1.65376426E+07   0.00000000E+00   0.00000000E+00   0.00000000E+00
   1.26000000E-02   6.55675356E+05   1.44354700E+07   1.44354700E+07   0.00000000E+00   0.00000000E+00   0.00000000E+00
   1.28000000E-02   5.71421977E+05   1.25805320E+07   1.25805320E+07   0.00000000E+00   0.00000000E+00   0.00000000E+00
   1.30000000E-02   4.97229787E+05   1.09471030E+07   1.09471030E+07   0.00000000E+00   0.00000000E+00   0.00000000E+00
   1.32000000E-02   4.32025959E+05   9.51156346E+06   9.51156346E+06   0.00000000E+00   0.00000000E+00   0.00000000E+00
   1.34000000E-02   3.74830156E+05   8.25233007E+06   8.25233007E+06   0.00000000E+00   0.00000000E+00   0.00000000E+00
   1.36000000E-02   3.24750465E+05   7.14976633E+06   7.14976633E+06   0.00000000E+00   0.00000000E+00   0.00000000E+00
   1.38000000E-02   2.80978704E+05   6.18607915E+06   6.18607915E+06   0.00000000E+00   0.00000000E+00   0.00000000E+00
   1.40000000E-02   2.42785316E+05   5.34520643E+06   5.34520643E+06   0.00000000E+00   0.00000000E+00   0.00000000E+00
   1.42000000E-02   2.09514029E+05   4.61269963E+06   4.61269963E+06   0.00000000E+00   0.00000000E+00   0.00000000E+00
   1.44000000E-02   1.80576444E+05   3.97560442E+06   3.97560442E+06   0.00000000E+00   0.00000000E+00   0.00000000E+00
   1.46000000E-02   1.55446643E+05   3.42234207E+06   3.42234207E+06   0.00000000E+00   0.00000000E+00   0.00000000E+00
   1.48000000E-02   1.33655926E+05   2.94259360E+06   2.94259360E+06   0.00000000E+00   0.00000000E+00   0.00000000E+00
   1.50000000E-02   1.14787735E+05   2.52718801E+06   2.52718801E+06   0.00000000E+00   0.00000000E+00   0.00000000E+00
   1.52000000E-02   9.84728211E+04   2.16799585E+06   2.16799585E+06   0.00000000E+00   0.00000000E+00   0.00000000E+00
   1.54000000E-02   8.43846812E+04   1.85782876E+06   1.85782876E+06   0.00000000E+00   0.00000000E+00   0.00000000E+00
   1.56000000E-02   7.22352879E+04   1.59034546E+06   1.59034546E+06   0.00000000E+00   0.00000000E+00   0.00000000E+00
   1.58000000E-02   6.17711256E+04   1.35996453E+06   1.35996453E+06   0.00000000E+00   0.00000000E+00   0.00000000E+00
   1.60000000E-02   5.27695322E+04   1.16178379E+06   1.16178379E+06   0.00000000E+00   0.00000000E+00   0.00000000E+00
   1.62000000E-02   4.50353441E+04   9.91506468E+05   9.91506468E+05   0.00000000E+00   0.00000000E+00   0.00000000E+00
   1.64000000E-02   3.83978338E+04   8.45373814E+05   8.45373814E+05   0.00000000E+00   0.00000000E+00   0.00000000E+00
   1.66000000E-02   3.27079307E+04   7.20103855E+05   7.20103855E+05   0.00000000E+00   0.00000000E+00   0.00000000E+00
   1.68000000E-02   2.78357074E+04   6.12836084E+05   6.12836084E+05   0.00000000E+00   0.00000000E+00   0.00000000E+00
   1.70000000E-02   2.36681166E+04   5.21081636E+05   5.21081636E+05   0.00000000E+00   0.00000000E+00   0.00000000E+00
   1.72000000E-02   2.01069618E+04   4.42678592E+05   4.42678592E+05   0.00000000E+00   0.00000000E+00   0.00000000E+00
   1.74000000E-02   1.70670819E+04   3.75752034E+05   3.75752034E+05   0.00000000E+00   0.00000000E+00   0.00000000E+00
   1.76000000E-02   1.44747347E+04   3.18678438E+05   3.18678438E+05   0.00000000E+00   0.00000000E+00   0.00000000E+00
   1.78000000E-02   1.22661604E+04   2.70054058E+05   2.70054058E+05   0.00000000E+00   0.00000000E+00   0.00000000E+00
   1.80000000E-02   1.03863092E+04   2.28666906E+05   2.28666906E+05   0.00000000E+00   0.00000000E+00   0.00000000E+00
   1.82000000E-02   8.78771710E+03   1.93472006E+05   1.93472006E+05   0.00000000E+00   0.00000000E+00   0.00000000E+00
   1.84000000E-02   7.42951528E+03   1.63569583E+05   1.63569583E+05   0.00000000E+00   0.00000000E+00   0.00000000E+00
   1.86000000E-02   6.27655918E+03   1.38185888E+05   1.38185888E+05   0.00000000E+00   0.00000000E+00   0.00000000E+00
   1.88000000E-02   5.29866453E+03   1.16656379E+05   1.16656379E+05   0.00000000E+00   0.00000000E+00   0.00000000E+00
   1.90000000E-02   4.46993865E+03   9.84109964E+04   9.84109964E+04   0.00000000E+00   0.00000000E+00   0.00000000E+00
   1.92000000E-02   3.76819635E+03   8.29613082E+04   8.29613082E+04   0.00000000E+00   0.00000000E+00   0.00000000E+00
   1.94000000E-02   3.17445076E+03   6.98892952E+04   6.98892952E+04   0.00000000E+00   0.00000000E+00   0.00000000E+00
   1.96000000E-02   2.67247012E+03   5.88375968E+04   5.88375968E+04   0.00000000E+00   0.00000000E+00   0.00000000E+00
   1.98000000E-02   2.24839299E+03   4.95010360E+04   4.95010360E+04   0.00000000E+00   0.00000000E+00   0.00000000E+00
   2.00000000E-02   1.89039434E+03   4.16192715E+04   4.16192715E+04   0.00000000E+00   0.00000000E+00   0.00000000E+00
   2.02000000E-02   1.58839668E+03   3.49704353E+04   3.49704353E+04   0.00000000E+00   0.00000000E+00   0.00000000E+00
   2.04000000E-02   1.33382024E+03   2.93656332E+04   2.93656332E+04   0.00000000E+00   0.00000000E+00   0.00000000E+00
   2.06000000E-02   1.11936735E+03   2.46441987E+04   2.46441987E+04   0.00000000E+00   0.00000000E+00   0.00000000E+00
   2.08000000E-02   9.38836676E+02   2.06696020E+04   2.06696020E+04   0.00000000E+00   0.00000000E+00   0.00000000E+00
   2.10000000E-02   7.86963293E+02   1.73259295E+04   1.73259295E+04   0.00000000E+00   0.00000000E+00   0.00000000E+00
   2.12000000E-02   6.59281235E+02   1.45148577E+04   1.45148577E+04   0.00000000E+00   0.00000000E+00   0.00000000E+00
   2.14000000E-02   5.52005524E+02   1.21530558E+04   1.21530558E+04   0.00000000E+00   0.00000000E+00   0.00000000E+00
   2.16000000E-02   4.61931025E+02   1.01699589E+04   1.01699589E+04   0.00000000E+00   0.00000000E+00   0.00000000E+00
   2.18000000E-02   3.86345844E+02   8.50586159E+03   8.50586159E+03   0.00000000E+00   0.00000000E+00   0.00000000E+00
   2.20000000E-02   3.22957255E+02   7.11028668E+03   7.11028668E+03   0.00000000E+00   0.00000000E+00   0.00000000E+00
   2.22000000E-02   2.69828426E+02   5.94059256E+03   5.94059256E+03   0.00000000E+00   0.00000000E+00   0.00000000E+00
   2.24000000E-02   2.25324422E+02   4.96078417E+03   4.96078417E+03   0.00000000E+00   0.00000000E+00   0.00000000E+00
   2.26000000E-02   1.88066174E+02   4.14049969E+03   4.14049969E+03   0.00000000E+00   0.00000000E+00   0.00000000E+00
   2.28000000E-02   1.56891283E+02   3.45414751E+03   3.45414751E+03   0.00000000E+00   0.00000000E+00   0.00000000E+00
   2.30000000E-02   1.30820673E+02   2.88017215E+03   2.88017215E+03   0.00000000E+00   0.00000000E+00   0.00000000E+00
   2.32000000E-02   1.09030257E+02   2.40043030E+03   2.40043030E+03   0.00000000E+00   0.00000000E+00   0.00000000E+00
   2.34000000E-02   9.08268656E+01   1.99966108E+03   1.99966108E+03   0.00000000E+00   0.00000000E+00   0.00000000E+00
   2.36000000E-02   7.56278440E+01   1.66503661E+03   1.66503661E+03   0.00000000E+00   0.00000000E+00   0.00000000E+00
   2.38000000E-02   6.29437458E+01   1.38578115E+03   1.38578115E+03   0.00000000E+00   0.00000000E+00   0.00000000E+00
   2.40000000E-02   5.23636860E+01   1.15284860E+03   1.15284860E+03   0.00000000E+00   0.00000000E+00   0.00000000E+00
   2.42000000E-02   4.35429453E+01   9.58649541E+02   9.58649541E+02   0.00000000E+00   0.00000000E+00   0.00000000E+00
   2.44000000E-02   3.61924921E+01   7.96820604E+02   7.96820604E+02   0.00000000E+00   0.00000000E+00   0.00000000E+00
   2.46000000E-02   3.00701310E+01   6.62029568E+02   6.62029568E+02   0.00000000E+00   0.00000000E+00   0.00000000E+00
   2.48000000E-02   2.49730320E+01   5.49810892E+02   5.49810892E+02   0.00000000E+00   0.00000000E+00   0.00000000E+00
   2.50000000E-02   2.07314296E+01   4.56426991E+02   4.56426991E+02   0.00000000E+00   0.00000000E+00   0.00000000E+00
   2.52000000E-02   1.72033131E+01   3.78751324E+02   3.78751324E+02   0.00000000E+00   0.00000000E+00   0.00000000E+00
   2.54000000E-02   1.42699537E+01   3.14169941E+02   3.14169941E+02   0.00000000E+00   0.00000000E+00   0.00000000E+00
   2.56000000E-02   1.18321419E+01   2.60498625E+02   2.60498625E+02   0.00000000E+00   0.00000000E+00   0.00000000E+00
   2.58000000E-02   9.80702190E+00   2.15913209E+02   2.15913209E+02   0.00000000E+00   0.00000000E+00   0.00000000E+00
   2.60000000E-02   8.12543226E+00   1.78891020E+02   1.78891020E+02   0.00000000E+00   0.00000000E+00   0.00000000E+00
   2.62000000E-02   6.72967164E+00   1.48161696E+02   1.48161696E+02   0.00000000E+00   0.00000000E+00   0.00000000E+00
   2.64000000E-02   5.57162409E+00   1.22665907E+02   1.22665907E+02   0.00000000E+00   0.00000000E+00   0.00000000E+00
   2.66000000E-02   4.61118643E+00   1.01520734E+02   1.01520734E+02   0.00000000E+00   0.00000000E+00   0.00000000E+00
   2.68000000E-02   3.81494997E+00   8.39906445E+01   8.39906445E+01   0.00000000E+00   0.00000000E+00   0.00000000E+00
   2.70000000E-02   3.15509619E+00   6.94631816E+01   6.94631816E+01   0.00000000E+00   0.00000000E+00   0.00000000E+00
   2.72000000E-02   2.60847214E+00   5.74286054E+01   5.74286054E+01   0.00000000E+00   0.00000000E+00   0.00000000E+00
   2.74000000E-02   2.15581675E+00   4.74628605E+01   4.74628605E+01   0.00000000E+00   0.00000000E+00   0.00000000E+00
   2.76000000E-02   1.78111382E+00   3.92133314E+01   3.92133314E+01   0.00000000E+00   0.00000000E+00   0.00000000E+00
   2.78000000E-02   1.47105124E+00   3.23869363E+01   3.23869363E+01   0.00000000E+00   0.00000000E+00   0.00000000E+00
   2.80000000E-02   1.21456926E+00   2.67401815E+01   2.67401815E+01   0.00000000E+00   0.00000000E+00   0.00000000E+00
   2.82000000E-02   1.00248328E+00   2.20708575E+01   2.20708575E+01   0.00000000E+00   0.00000000E+00   0.00000000E+00
   2.84000000E-02   8.27169172E-01   1.82111095E+01   1.82111095E+01   0.00000000E+00   0.00000000E+00   0.00000000E+00
   2.86000000E-02   6.82300701E-01   1.50216585E+01   1.50216585E+01   0.00000000E+00   0.00000000E+00   0.00000000E+00
   2.88000000E-02   5.62630747E-01   1.23869826E+01   1.23869826E+01   0.00000000E+00   0.00000000E+00   0.00000000E+00
   2.90000000E-02   4.63808951E-01   1.02113037E+01   1.02113037E+01   0.00000000E+00   0.00000000E+00   0.00000000E+00
   2.92000000E-02   3.82229870E-01   8.41524354E+00   8.41524354E+00   0.00000000E+00   0.00000000E+00   0.00000000E+00
   2.94000000E-02   3.14906575E-01   6.93304142E+00   6.93304142E+00   0.00000000E+00   0.00000000E+00   0.00000000E+00
   2.96000000E-02   2.59365486E-01   5.71023854E+00   5.71023854E+00   0.00000000E+00   0.00000000E+00   0.00000000E+00
   2.98000000E-02   2.13558909E-01   4.70175247E+00   4.70175247E+00   0.00000000E+00   0.00000000E+00   0.00000000E+00
   3.00000000E-02   1.75792333E-01   3.87027654E+00   3.87027654E+00   0.00000000E+00   0.00000000E+00   0.00000000E+00
   3.02000000E-02   1.44664020E-01   3.18494984E+00   3.18494984E+00   0.00000000E+00   0.00000000E+00   0.00000000E+00
   3.04000000E-02   1.19014835E-01   2.62025263E+00   2.62025263E+00   0.00000000E+00   0.00000000E+00   0.00000000E+00
   3.06000000E-02   9.78865924E-02   2.15508933E+00   2.15508933E+00   0.00000000E+00   0.00000000E+00   0.00000000E+00
   3.08000000E-02   8.04874942E-02   1.77202757E+00   1.77202757E+00   0.00000000E+00   0.00000000E+00   0.00000000E+00
   3.10000000E-02   6.61634589E-02   1.45666696E+00   1.45666696E+00   0.00000000E+00   0.00000000E+00   0.00000000E+00
   3.12000000E-02   5.43743500E-02   1.19711575E+00   1.19711575E+00   0.00000000E+00   0.00000000E+00   0.00000000E+00
   3.14000000E-02   4.46742729E-02   9.83557059E-01   9.83557059E-01   0.00000000E+00   0.00000000E+00   0.00000000E+00
   3.16000000E-02   3.66952518E-02   8.07889454E-01   8.07889454E-01   0.00000000E+00   0.00000000E+00   0.00000000E+00
   3.18000000E-02   3.01337109E-02   6.63429355E-01   6.63429355E-01   0.00000000E+00   0.00000000E+00   0.00000000E+00
   3.20000000E-02   2.47392827E-02   5.44664625E-01   5.44664625E-01   0.00000000E+00   0.00000000E+00   0.00000000E+00
   3.22000000E-02   2.03055462E-02   4.47050663E-01   4.47050663E-01   0.00000000E+00   0.00000000E+00   0.00000000E+00
   3.24000000E-02   1.66623657E-02   3.66841727E-01   3.66841727E-01   0.00000000E+00   0.00000000E+00   0.00000000E+00
   3.26000000E-02   1.36695545E-02   3.00951440E-01   3.00951440E-01   0.00000000E+00   0.00000000E+00   0.00000000E+00
   3.28000000E-02   1.12116374E-02   2.46837483E-01   2.46837483E-01   0.00000000E+00   0.00000000E+00   0.00000000E+00
