# TBinMid=0.75 ssec TBinWidth=0.1 ss EBinWidth=0.2MeV Fluence at Earth for this timebin in neutrinos per cm^2
# E(GeV)	NuE	NuMu	NuTau	aNuE	aNuMu	aNuTau
   1.38589050E-13   4.33405385E-16   2.33852049E-16   2.33852049E-16   1.15264224E-15   3.03546226E-15   3.03546226E-15
   2.00000000E-04   3.82099844E+06   3.69561039E+06   3.69561039E+06   1.80562318E+06   3.78062867E+06   3.78062867E+06
   4.00000000E-04   2.03775514E+07   2.15606297E+07   2.15606297E+07   1.01348367E+07   1.90183368E+07   1.90183368E+07
   6.00000000E-04   5.32730933E+07   5.95925324E+07   5.95925324E+07   2.78594421E+07   4.82635206E+07   4.82635206E+07
   8.00000000E-04   1.03946831E+08   1.20982988E+08   1.20982988E+08   5.68754116E+07   9.24680257E+07   9.24680257E+07
   1.00000000E-03   1.72737825E+08   2.07196095E+08   2.07196095E+08   9.84270736E+07   1.51807767E+08   1.51807767E+08
   1.20000000E-03   2.59301526E+08   3.18482453E+08   3.18482453E+08   1.53252048E+08   2.25980875E+08   2.25980875E+08
   1.40000000E-03   3.62842160E+08   4.54211819E+08   4.54211819E+08   2.21678772E+08   3.14368360E+08   3.14368360E+08
   1.60000000E-03   4.82261754E+08   6.13112869E+08   6.13112869E+08   3.03701749E+08   4.16135463E+08   4.16135463E+08
   1.80000000E-03   6.16263072E+08   7.93455029E+08   7.93455029E+08   3.99043174E+08   5.30301337E+08   5.30301337E+08
   2.00000000E-03   7.63423915E+08   9.93190006E+08   9.93190006E+08   5.07204865E+08   6.55789514E+08   6.55789514E+08
   2.20000000E-03   9.22252176E+08   1.21006338E+09   1.21006338E+09   6.27512636E+08   7.91465663E+08   7.91465663E+08
   2.40000000E-03   1.09122726E+09   1.44170307E+09   1.44170307E+09   7.59154454E+08   9.36166425E+08   9.36166425E+08
   2.60000000E-03   1.26883150E+09   1.68568937E+09   1.68568937E+09   9.01213341E+08   1.08872170E+09   1.08872170E+09
   2.80000000E-03   1.45357392E+09   1.93961022E+09   1.93961022E+09   1.05269572E+09   1.24797196E+09   1.24797196E+09
   3.00000000E-03   1.64400821E+09   2.20110432E+09   2.20110432E+09   1.21255580E+09   1.41278168E+09   1.41278168E+09
   3.20000000E-03   1.83874611E+09   2.46789434E+09   2.46789434E+09   1.37971644E+09   1.58204979E+09   1.58204979E+09
   3.40000000E-03   2.03646707E+09   2.73781191E+09   2.73781191E+09   1.55308696E+09   1.75471751E+09   1.75471751E+09
   3.60000000E-03   2.23592511E+09   3.00881588E+09   3.00881588E+09   1.73157819E+09   1.92977439E+09   1.92977439E+09
   3.80000000E-03   2.43595332E+09   3.27900502E+09   3.27900502E+09   1.91411517E+09   2.10626259E+09   2.10626259E+09
   4.00000000E-03   2.63546649E+09   3.54662614E+09   3.54662614E+09   2.09964763E+09   2.28327984E+09   2.28327984E+09
   4.20000000E-03   2.83346227E+09   3.81007843E+09   3.81007843E+09   2.28715867E+09   2.45998138E+09   2.45998138E+09
   4.40000000E-03   3.02902107E+09   4.06791485E+09   4.06791485E+09   2.47567170E+09   2.63558087E+09   2.63558087E+09
   4.60000000E-03   3.22130512E+09   4.31884098E+09   4.31884098E+09   2.66425606E+09   2.80935071E+09   2.80935071E+09
   4.80000000E-03   3.40955665E+09   4.56171198E+09   4.56171198E+09   2.85203117E+09   2.98062161E+09   2.98062161E+09
   5.00000000E-03   3.59309559E+09   4.79552800E+09   4.79552800E+09   3.03816973E+09   3.14878174E+09   3.14878174E+09
   5.20000000E-03   3.77131674E+09   5.01942840E+09   5.01942840E+09   3.22189989E+09   3.31327548E+09   3.31327548E+09
   5.40000000E-03   3.94368669E+09   5.23268511E+09   5.23268511E+09   3.40250656E+09   3.47360182E+09   3.47360182E+09
   5.60000000E-03   4.10974039E+09   5.43469539E+09   5.43469539E+09   3.57933201E+09   3.62931249E+09   3.62931249E+09
   5.80000000E-03   4.26907769E+09   5.62497408E+09   5.62497408E+09   3.75177587E+09   3.78001000E+09   3.78001000E+09
   6.00000000E-03   4.42135963E+09   5.80314572E+09   5.80314572E+09   3.91929461E+09   3.92534536E+09   3.92534536E+09
   6.20000000E-03   4.56630482E+09   5.96893648E+09   5.96893648E+09   4.08140053E+09   4.06501587E+09   4.06501587E+09
   6.40000000E-03   4.70368571E+09   6.12216614E+09   6.12216614E+09   4.23766042E+09   4.19876274E+09   4.19876274E+09
   6.60000000E-03   4.83332499E+09   6.26274017E+09   6.26274017E+09   4.38769392E+09   4.32636869E+09   4.32636869E+09
   6.80000000E-03   4.95509197E+09   6.39064199E+09   6.39064199E+09   4.53117161E+09   4.44765553E+09   4.44765553E+09
   7.00000000E-03   5.06889908E+09   6.50592548E+09   6.50592548E+09   4.66781291E+09   4.56248179E+09   4.56248179E+09
   7.20000000E-03   5.17469848E+09   6.60870777E+09   6.60870777E+09   4.79738388E+09   4.67074033E+09   4.67074033E+09
   7.40000000E-03   5.27247877E+09   6.69916238E+09   6.69916238E+09   4.91969483E+09   4.77235599E+09   4.77235599E+09
   7.60000000E-03   5.36226184E+09   6.77751265E+09   6.77751265E+09   5.03459794E+09   4.86728334E+09   4.86728334E+09
   7.80000000E-03   5.44409984E+09   6.84402559E+09   6.84402559E+09   5.14198472E+09   4.95550441E+09   4.95550441E+09
   8.00000000E-03   5.51807230E+09   6.89900609E+09   6.89900609E+09   5.24178363E+09   5.03702659E+09   5.03702659E+09
   8.20000000E-03   5.58428339E+09   6.94279147E+09   6.94279147E+09   5.33395749E+09   5.11188050E+09   5.11188050E+09
   8.40000000E-03   5.64285935E+09   6.97574646E+09   6.97574646E+09   5.41850111E+09   5.18011805E+09   5.18011805E+09
   8.60000000E-03   5.69394602E+09   6.99825852E+09   6.99825852E+09   5.49543882E+09   5.24181048E+09   5.24181048E+09
   8.80000000E-03   5.73770652E+09   7.01073351E+09   7.01073351E+09   5.56482209E+09   5.29704654E+09   5.29704654E+09
   9.00000000E-03   5.77431915E+09   7.01359173E+09   7.01359173E+09   5.62672729E+09   5.34593076E+09   5.34593076E+09
   9.20000000E-03   5.80397526E+09   7.00726430E+09   7.00726430E+09   5.68125338E+09   5.38858182E+09   5.38858182E+09
   9.40000000E-03   5.82687748E+09   6.99218985E+09   6.99218985E+09   5.72851982E+09   5.42513093E+09   5.42513093E+09
   9.60000000E-03   5.84323787E+09   6.96881156E+09   6.96881156E+09   5.76866446E+09   5.45572039E+09   5.45572039E+09
   9.80000000E-03   5.85327632E+09   6.93757441E+09   6.93757441E+09   5.80184160E+09   5.48050218E+09   5.48050218E+09
   1.00000000E-02   5.85721904E+09   6.89892280E+09   6.89892280E+09   5.82822007E+09   5.49963669E+09   5.49963669E+09
   1.02000000E-02   5.85529714E+09   6.85329836E+09   6.85329836E+09   5.84798147E+09   5.51329141E+09   5.51329141E+09
   1.04000000E-02   5.84774539E+09   6.80113809E+09   6.80113809E+09   5.86131846E+09   5.52163989E+09   5.52163989E+09
   1.06000000E-02   5.83480098E+09   6.74287261E+09   6.74287261E+09   5.86843317E+09   5.52486057E+09   5.52486057E+09
   1.08000000E-02   5.81670248E+09   6.67892472E+09   6.67892472E+09   5.86953569E+09   5.52313584E+09   5.52313584E+09
   1.10000000E-02   5.79368886E+09   6.60970816E+09   6.60970816E+09   5.86484268E+09   5.51665112E+09   5.51665112E+09
   1.12000000E-02   5.76599855E+09   6.53562644E+09   6.53562644E+09   5.85457602E+09   5.50559398E+09   5.50559398E+09
   1.14000000E-02   5.73386869E+09   6.45707200E+09   6.45707200E+09   5.83896161E+09   5.49015335E+09   5.49015335E+09
   1.16000000E-02   5.69753436E+09   6.37442538E+09   6.37442538E+09   5.81822825E+09   5.47051882E+09   5.47051882E+09
   1.18000000E-02   5.65722793E+09   6.28805464E+09   6.28805464E+09   5.79260655E+09   5.44687997E+09   5.44687997E+09
   1.20000000E-02   5.61317849E+09   6.19831483E+09   6.19831483E+09   5.76232797E+09   5.41942574E+09   5.41942574E+09
   1.22000000E-02   5.56561131E+09   6.10554763E+09   6.10554763E+09   5.72762395E+09   5.38834389E+09   5.38834389E+09
   1.24000000E-02   5.51474743E+09   6.01008109E+09   6.01008109E+09   5.68872508E+09   5.35382051E+09   5.35382051E+09
   1.26000000E-02   5.46080320E+09   5.91222941E+09   5.91222941E+09   5.64586035E+09   5.31603955E+09   5.31603955E+09
   1.28000000E-02   5.40398997E+09   5.81229288E+09   5.81229288E+09   5.59925649E+09   5.27518242E+09   5.27518242E+09
   1.30000000E-02   5.34451379E+09   5.71055787E+09   5.71055787E+09   5.54913739E+09   5.23142765E+09   5.23142765E+09
   1.32000000E-02   5.28257517E+09   5.60729688E+09   5.60729688E+09   5.49572348E+09   5.18495050E+09   5.18495050E+09
   1.34000000E-02   5.21836884E+09   5.50276863E+09   5.50276863E+09   5.43923134E+09   5.13592276E+09   5.13592276E+09
   1.36000000E-02   5.15208361E+09   5.39721826E+09   5.39721826E+09   5.37987319E+09   5.08451243E+09   5.08451243E+09
   1.38000000E-02   5.08390223E+09   5.29087754E+09   5.29087754E+09   5.31785656E+09   5.03088355E+09   5.03088355E+09
   1.40000000E-02   5.01400128E+09   5.18396510E+09   5.18396510E+09   5.25338394E+09   4.97519601E+09   4.97519601E+09
   1.42000000E-02   4.94255113E+09   5.07668675E+09   5.07668675E+09   5.18665253E+09   4.91760536E+09   4.91760536E+09
   1.44000000E-02   4.86971586E+09   4.96923577E+09   4.96923577E+09   5.11785395E+09   4.85826273E+09   4.85826273E+09
   1.46000000E-02   4.79565327E+09   4.86179329E+09   4.86179329E+09   5.04717409E+09   4.79731468E+09   4.79731468E+09
   1.48000000E-02   4.72051486E+09   4.75452859E+09   4.75452859E+09   4.97479292E+09   4.73490316E+09   4.73490316E+09
   1.50000000E-02   4.64444591E+09   4.64759954E+09   4.64759954E+09   4.90088437E+09   4.67116543E+09   4.67116543E+09
   1.52000000E-02   4.56758545E+09   4.54115297E+09   4.54115297E+09   4.82561625E+09   4.60623400E+09   4.60623400E+09
   1.54000000E-02   4.49006638E+09   4.43532504E+09   4.43532504E+09   4.74915015E+09   4.54023666E+09   4.54023666E+09
   1.56000000E-02   4.41201553E+09   4.33024170E+09   4.33024170E+09   4.67164144E+09   4.47329642E+09   4.47329642E+09
   1.58000000E-02   4.33355373E+09   4.22601905E+09   4.22601905E+09   4.59323922E+09   4.40553157E+09   4.40553157E+09
   1.60000000E-02   4.25479596E+09   4.12276379E+09   4.12276379E+09   4.51408636E+09   4.33705564E+09   4.33705564E+09
   1.62000000E-02   4.17585139E+09   4.02057357E+09   4.02057357E+09   4.43431952E+09   4.26797751E+09   4.26797751E+09
   1.64000000E-02   4.09682356E+09   3.91953748E+09   3.91953748E+09   4.35406916E+09   4.19840140E+09   4.19840140E+09
   1.66000000E-02   4.01781050E+09   3.81973640E+09   3.81973640E+09   4.27345968E+09   4.12842693E+09   4.12842693E+09
   1.68000000E-02   3.93890483E+09   3.72124339E+09   3.72124339E+09   4.19260940E+09   4.05814922E+09   4.05814922E+09
   1.70000000E-02   3.86019393E+09   3.62412410E+09   3.62412410E+09   4.11163076E+09   3.98765894E+09   3.98765894E+09
   1.72000000E-02   3.78176008E+09   3.52843716E+09   3.52843716E+09   4.03063033E+09   3.91704239E+09   3.91704239E+09
   1.74000000E-02   3.70368060E+09   3.43423455E+09   3.43423455E+09   3.94970898E+09   3.84638158E+09   3.84638158E+09
   1.76000000E-02   3.62602799E+09   3.34156193E+09   3.34156193E+09   3.86896198E+09   3.77575433E+09   3.77575433E+09
   1.78000000E-02   3.54887012E+09   3.25045905E+09   3.25045905E+09   3.78847915E+09   3.70523440E+09   3.70523440E+09
   1.80000000E-02   3.47227035E+09   3.16096005E+09   3.16096005E+09   3.70834497E+09   3.63489151E+09   3.63489151E+09
   1.82000000E-02   3.39628769E+09   3.07309379E+09   3.07309379E+09   3.62863875E+09   3.56479151E+09   3.56479151E+09
   1.84000000E-02   3.32097695E+09   2.98688422E+09   2.98688422E+09   3.54943475E+09   3.49499647E+09   3.49499647E+09
   1.86000000E-02   3.24638893E+09   2.90235064E+09   2.90235064E+09   3.47080236E+09   3.42556478E+09   3.42556478E+09
   1.88000000E-02   3.17257052E+09   2.81950802E+09   2.81950802E+09   3.39280624E+09   3.35655125E+09   3.35655125E+09
   1.90000000E-02   3.09956488E+09   2.73836727E+09   2.73836727E+09   3.31550648E+09   3.28800726E+09   3.28800726E+09
   1.92000000E-02   3.02741160E+09   2.65893555E+09   2.65893555E+09   3.23895875E+09   3.21998082E+09   3.21998082E+09
   1.94000000E-02   2.95614683E+09   2.58121649E+09   2.58121649E+09   3.16321447E+09   3.15251672E+09   3.15251672E+09
   1.96000000E-02   2.88580342E+09   2.50521046E+09   2.50521046E+09   3.08832094E+09   3.08565661E+09   3.08565661E+09
   1.98000000E-02   2.81641109E+09   2.43091484E+09   2.43091484E+09   3.01432156E+09   3.01943916E+09   3.01943916E+09
   2.00000000E-02   2.74799656E+09   2.35832417E+09   2.35832417E+09   2.94125592E+09   2.95390012E+09   2.95390012E+09
   2.02000000E-02   2.68058367E+09   2.28743048E+09   2.28743048E+09   2.86915999E+09   2.88907245E+09   2.88907245E+09
   2.04000000E-02   2.61419353E+09   2.21822338E+09   2.21822338E+09   2.79806626E+09   2.82498642E+09   2.82498642E+09
   2.06000000E-02   2.54884465E+09   2.15069036E+09   2.15069036E+09   2.72800392E+09   2.76166974E+09   2.76166974E+09
   2.08000000E-02   2.48455309E+09   2.08481690E+09   2.08481690E+09   2.65899897E+09   2.69914765E+09   2.69914765E+09
   2.10000000E-02   2.42133254E+09   2.02058668E+09   2.02058668E+09   2.59107439E+09   2.63744302E+09   2.63744302E+09
   2.12000000E-02   2.35919446E+09   1.95798177E+09   1.95798177E+09   2.52425029E+09   2.57657644E+09   2.57657644E+09
   2.14000000E-02   2.29814823E+09   1.89698273E+09   1.89698273E+09   2.45854402E+09   2.51656636E+09   2.51656636E+09
   2.16000000E-02   2.23820122E+09   1.83756882E+09   1.83756882E+09   2.39397037E+09   2.45742916E+09   2.45742916E+09
   2.18000000E-02   2.17935891E+09   1.77971809E+09   1.77971809E+09   2.33054161E+09   2.39917923E+09   2.39917923E+09
   2.20000000E-02   2.12162502E+09   1.72340755E+09   1.72340755E+09   2.26826772E+09   2.34182910E+09   2.34182910E+09
   2.22000000E-02   2.06500159E+09   1.66861327E+09   1.66861327E+09   2.20715645E+09   2.28538951E+09   2.28538951E+09
   2.24000000E-02   2.00948909E+09   1.61531051E+09   1.61531051E+09   2.14721346E+09   2.22986950E+09   2.22986950E+09
   2.26000000E-02   1.95508652E+09   1.56347383E+09   1.56347383E+09   2.08844246E+09   2.17527649E+09   2.17527649E+09
   2.28000000E-02   1.90179147E+09   1.51307718E+09   1.51307718E+09   2.03084531E+09   2.12161639E+09   2.12161639E+09
   2.30000000E-02   1.84960028E+09   1.46409400E+09   1.46409400E+09   1.97442211E+09   2.06889364E+09   2.06889364E+09
   2.32000000E-02   1.79850803E+09   1.41649732E+09   1.41649732E+09   1.91917136E+09   2.01711133E+09   2.01711133E+09
   2.34000000E-02   1.74850873E+09   1.37025982E+09   1.37025982E+09   1.86509001E+09   1.96627124E+09   1.96627124E+09
   2.36000000E-02   1.69959529E+09   1.32535394E+09   1.32535394E+09   1.81217359E+09   1.91637394E+09   1.91637394E+09
   2.38000000E-02   1.65175967E+09   1.28175193E+09   1.28175193E+09   1.76041632E+09   1.86741885E+09   1.86741885E+09
   2.40000000E-02   1.60499294E+09   1.23942590E+09   1.23942590E+09   1.70981117E+09   1.81940432E+09   1.81940432E+09
   2.42000000E-02   1.55928533E+09   1.19834792E+09   1.19834792E+09   1.66034995E+09   1.77232766E+09   1.77232766E+09
   2.44000000E-02   1.51462631E+09   1.15849004E+09   1.15849004E+09   1.61202344E+09   1.72618525E+09   1.72618525E+09
   2.46000000E-02   1.47100463E+09   1.11982439E+09   1.11982439E+09   1.56482140E+09   1.68097257E+09   1.68097257E+09
   2.48000000E-02   1.42840842E+09   1.08232316E+09   1.08232316E+09   1.51873274E+09   1.63668429E+09   1.63668429E+09
   2.50000000E-02   1.38682523E+09   1.04595871E+09   1.04595871E+09   1.47374549E+09   1.59331428E+09   1.59331428E+09
   2.52000000E-02   1.34624205E+09   1.01070355E+09   1.01070355E+09   1.42984696E+09   1.55085571E+09   1.55085571E+09
   2.54000000E-02   1.30664544E+09   9.76530442E+08   9.76530442E+08   1.38702376E+09   1.50930106E+09   1.50930106E+09
   2.56000000E-02   1.26802148E+09   9.43412376E+08   9.43412376E+08   1.34526187E+09   1.46864222E+09   1.46864222E+09
   2.58000000E-02   1.23035591E+09   9.11322628E+08   9.11322628E+08   1.30454673E+09   1.42887049E+09   1.42887049E+09
   2.60000000E-02   1.19363412E+09   8.80234782E+08   8.80234782E+08   1.26486325E+09   1.38997666E+09   1.38997666E+09
   2.62000000E-02   1.15784119E+09   8.50122752E+08   8.50122752E+08   1.22619592E+09   1.35195102E+09   1.35195102E+09
   2.64000000E-02   1.12296197E+09   8.20960807E+08   8.20960807E+08   1.18852882E+09   1.31478345E+09   1.31478345E+09
   2.66000000E-02   1.08898108E+09   7.92723588E+08   7.92723588E+08   1.15184567E+09   1.27846339E+09   1.27846339E+09
   2.68000000E-02   1.05588296E+09   7.65386125E+08   7.65386125E+08   1.11612993E+09   1.24297997E+09   1.24297997E+09
   2.70000000E-02   1.02365190E+09   7.38923851E+08   7.38923851E+08   1.08136477E+09   1.20832194E+09   1.20832194E+09
   2.72000000E-02   9.92272071E+08   7.13312618E+08   7.13312618E+08   1.04753316E+09   1.17447781E+09   1.17447781E+09
   2.74000000E-02   9.61727562E+08   6.88528704E+08   6.88528704E+08   1.01461792E+09   1.14143579E+09   1.14143579E+09
   2.76000000E-02   9.32002401E+08   6.64548824E+08   6.64548824E+08   9.82601696E+08   1.10918388E+09   1.10918388E+09
   2.78000000E-02   9.03080580E+08   6.41350139E+08   6.41350139E+08   9.51467061E+08   1.07770989E+09   1.07770989E+09
   2.80000000E-02   8.74946084E+08   6.18910260E+08   6.18910260E+08   9.21196513E+08   1.04700144E+09   1.04700144E+09
   2.82000000E-02   8.47582910E+08   5.97207252E+08   5.97207252E+08   8.91772511E+08   1.01704603E+09   1.01704603E+09
   2.84000000E-02   8.20975091E+08   5.76219640E+08   5.76219640E+08   8.63177509E+08   9.87831005E+08   9.87831005E+08
   2.86000000E-02   7.95106713E+08   5.55926412E+08   5.55926412E+08   8.35393977E+08   9.59343648E+08   9.59343648E+08
   2.88000000E-02   7.69961938E+08   5.36307014E+08   5.36307014E+08   8.08404429E+08   9.31571151E+08   9.31571151E+08
   2.90000000E-02   7.45525016E+08   5.17341359E+08   5.17341359E+08   7.82191446E+08   9.04500656E+08   9.04500656E+08
   2.92000000E-02   7.21780302E+08   4.99009819E+08   4.99009819E+08   7.56737696E+08   8.78119270E+08   8.78119270E+08
   2.94000000E-02   6.98712274E+08   4.81293228E+08   4.81293228E+08   7.32025954E+08   8.52414086E+08   8.52414086E+08
   2.96000000E-02   6.76305544E+08   4.64172876E+08   4.64172876E+08   7.08039123E+08   8.27372199E+08   8.27372199E+08
   2.98000000E-02   6.54544868E+08   4.47630512E+08   4.47630512E+08   6.84760247E+08   8.02980721E+08   8.02980721E+08
   3.00000000E-02   6.33415161E+08   4.31648332E+08   4.31648332E+08   6.62172529E+08   7.79226797E+08   7.79226797E+08
   3.02000000E-02   6.12901509E+08   4.16208982E+08   4.16208982E+08   6.40259344E+08   7.56097621E+08   7.56097621E+08
   3.04000000E-02   5.92989171E+08   4.01295549E+08   4.01295549E+08   6.19004253E+08   7.33580445E+08   7.33580445E+08
   3.06000000E-02   5.73663595E+08   3.86891559E+08   3.86891559E+08   5.98391015E+08   7.11662594E+08   7.11662594E+08
   3.08000000E-02   5.54910422E+08   3.72980969E+08   3.72980969E+08   5.78403593E+08   6.90331480E+08   6.90331480E+08
   3.10000000E-02   5.36715493E+08   3.59548162E+08   3.59548162E+08   5.59026172E+08   6.69574605E+08   6.69574605E+08
   3.12000000E-02   5.19064857E+08   3.46577940E+08   3.46577940E+08   5.40243160E+08   6.49379578E+08   6.49379578E+08
   3.14000000E-02   5.01944775E+08   3.34055520E+08   3.34055520E+08   5.22039198E+08   6.29734122E+08   6.29734122E+08
   3.16000000E-02   4.85341724E+08   3.21966522E+08   3.21966522E+08   5.04399171E+08   6.10626078E+08   6.10626078E+08
   3.18000000E-02   4.69242402E+08   3.10296969E+08   3.10296969E+08   4.87308204E+08   5.92043418E+08   5.92043418E+08
   3.20000000E-02   4.53633733E+08   2.99033273E+08   2.99033273E+08   4.70751679E+08   5.73974251E+08   5.73974251E+08
   3.22000000E-02   4.38502867E+08   2.88162233E+08   2.88162233E+08   4.54715230E+08   5.56406826E+08   5.56406826E+08
   3.24000000E-02   4.23837185E+08   2.77671025E+08   2.77671025E+08   4.39184749E+08   5.39329541E+08   5.39329541E+08
   3.26000000E-02   4.09624299E+08   2.67547192E+08   2.67547192E+08   4.24146393E+08   5.22730946E+08   5.22730946E+08
   3.28000000E-02   3.95852054E+08   2.57778643E+08   2.57778643E+08   4.09586582E+08   5.06599749E+08   5.06599749E+08
