# TBinMid=-0.065 ssec TBinWidth=0.01 ss EBinWidth=0.2MeV Fluence at Earth for this timebin in neutrinos per cm^2
# E(GeV)	NuE	NuMu	NuTau	aNuE	aNuMu	aNuTau
   1.38589050E-13   3.46682182E-15   7.63261907E-14   7.63261907E-14   8.91941263E-32   2.34891146E-31   2.34891146E-31
   2.00000000E-04   4.55007910E+05   1.00173308E+07   1.00173308E+07   3.17545930E+00   8.30552863E+00   8.30552863E+00
   4.00000000E-04   1.78537808E+06   3.93053844E+07   3.93053844E+07   2.85616795E+01   7.33567865E+01   7.33567865E+01
   6.00000000E-04   3.69498622E+06   8.13435355E+07   8.13435355E+07   9.58708692E+01   2.39771126E+02   2.39771126E+02
   8.00000000E-04   5.88426862E+06   1.29536209E+08   1.29536209E+08   2.15519707E+02   5.21835820E+02   5.21835820E+02
   1.00000000E-03   8.11700736E+06   1.78683089E+08   1.78683089E+08   3.89176108E+02   9.08976650E+02   9.08976650E+02
   1.20000000E-03   1.02243718E+07   2.25067843E+08   2.25067843E+08   6.11611037E+02   1.37535342E+03   1.37535342E+03
   1.40000000E-03   1.20959492E+07   2.66260439E+08   2.66260439E+08   8.72668714E+02   1.88828762E+03   1.88828762E+03
   1.60000000E-03   1.36679899E+07   3.00858177E+08   3.00858177E+08   1.15915591E+03   2.41441600E+03   2.41441600E+03
   1.80000000E-03   1.49121145E+07   3.28236991E+08   3.28236991E+08   1.45656100E+03   2.92364542E+03   2.92364542E+03
   2.00000000E-03   1.58255587E+07   3.48336601E+08   3.48336601E+08   1.75051916E+03   3.39132909E+03   3.39132909E+03
   2.20000000E-03   1.64231984E+07   3.61484938E+08   3.61484938E+08   2.02795913E+03   3.79913623E+03   3.79913623E+03
   2.40000000E-03   1.67312733E+07   3.68259960E+08   3.68259960E+08   2.27790227E+03   4.13503414E+03   4.13503414E+03
   2.60000000E-03   1.67825961E+07   3.69384195E+08   3.69384195E+08   2.49192316E+03   4.39271917E+03   4.39271917E+03
   2.80000000E-03   1.66130032E+07   3.65646629E+08   3.65646629E+08   2.66431116E+03   4.57074907E+03   4.57074907E+03
   3.00000000E-03   1.62588109E+07   3.57846720E+08   3.57846720E+08   2.79199139E+03   4.67155667E+03   4.67155667E+03
   3.20000000E-03   1.57550640E+07   3.46755871E+08   3.46755871E+08   2.87427077E+03   4.70046541E+03   4.70046541E+03
   3.40000000E-03   1.51343973E+07   3.33092384E+08   3.33092384E+08   2.91247298E+03   4.66478205E+03   4.66478205E+03
   3.60000000E-03   1.44263598E+07   3.17506598E+08   3.17506598E+08   2.90951831E+03   4.57300793E+03   4.57300793E+03
   3.80000000E-03   1.36570806E+07   3.00573557E+08   3.00573557E+08   2.86949350E+03   4.43418649E+03   4.43418649E+03
   4.00000000E-03   1.28491805E+07   2.82791068E+08   2.82791068E+08   2.79724475E+03   4.25738839E+03   4.25738839E+03
   4.20000000E-03   1.20218540E+07   2.64581514E+08   2.64581514E+08   2.69801596E+03   4.05132569E+03   4.05132569E+03
   4.40000000E-03   1.11910638E+07   2.46296143E+08   2.46296143E+08   2.57714450E+03   3.82408030E+03   3.82408030E+03
   4.60000000E-03   1.03698044E+07   2.28220880E+08   2.28220880E+08   2.43981917E+03   3.58292960E+03   3.58292960E+03
   4.80000000E-03   9.56840273E+06   2.10582940E+08   2.10582940E+08   2.29089942E+03   3.33425130E+03   3.33425130E+03
   5.00000000E-03   8.79483230E+06   1.93557749E+08   1.93557749E+08   2.13479068E+03   3.08349049E+03   3.08349049E+03
   5.20000000E-03   8.05502444E+06   1.77275793E+08   1.77275793E+08   1.97536893E+03   2.83517355E+03   2.83517355E+03
   5.40000000E-03   7.35316572E+06   1.61829165E+08   1.61829165E+08   1.81594586E+03   2.59295552E+03   2.59295552E+03
   5.60000000E-03   6.69197452E+06   1.47277652E+08   1.47277652E+08   1.65926640E+03   2.35968973E+03   2.35968973E+03
   5.80000000E-03   6.07295277E+06   1.33654277E+08   1.33654277E+08   1.50753055E+03   2.13751078E+03   2.13751078E+03
   6.00000000E-03   5.49661109E+06   1.20970252E+08   1.20970252E+08   1.36243219E+03   1.92792368E+03   1.92792368E+03
   6.20000000E-03   4.96266704E+06   1.09219339E+08   1.09219339E+08   1.22520895E+03   1.73189384E+03   1.73189384E+03
   6.40000000E-03   4.47021729E+06   9.83816416E+07   9.83816416E+07   1.09669799E+03   1.54993416E+03   1.54993416E+03
   6.60000000E-03   4.01788528E+06   8.84268534E+07   8.84268534E+07   9.77393618E+02   1.38218638E+03   1.38218638E+03
   6.80000000E-03   3.60394633E+06   7.93170086E+07   7.93170086E+07   8.67504100E+02   1.22849532E+03   1.22849532E+03
   7.00000000E-03   3.22643224E+06   7.10087857E+07   7.10087857E+07   7.67005181E+02   1.08847485E+03   1.08847485E+03
   7.20000000E-03   2.88321778E+06   6.34554086E+07   6.34554086E+07   6.75689191E+02   9.61565535E+02   9.61565535E+02
   7.40000000E-03   2.57209105E+06   5.66081969E+07   5.66081969E+07   5.93208822E+02   8.47083950E+02   8.47083950E+02
   7.60000000E-03   2.29081009E+06   5.04178089E+07   5.04178089E+07   5.19115245E+02   7.44264085E+02   7.44264085E+02
   7.80000000E-03   2.03714739E+06   4.48352224E+07   4.48352224E+07   4.52890584E+02   6.52291527E+02   6.52291527E+02
   8.00000000E-03   1.80892431E+06   3.98124917E+07   3.98124917E+07   3.93974955E+02   5.70331061E+02   5.70331061E+02
   8.20000000E-03   1.60403696E+06   3.53033159E+07   3.53033159E+07   3.41788499E+02   4.97548502E+02   4.97548502E+02
   8.40000000E-03   1.42047486E+06   3.12634509E+07   3.12634509E+07   2.95748869E+02   4.33127494E+02   4.33127494E+02
   8.60000000E-03   1.25633383E+06   2.76509917E+07   2.76509917E+07   2.55284751E+02   3.76282038E+02   3.76282038E+02
   8.80000000E-03   1.10982404E+06   2.44265499E+07   2.44265499E+07   2.19845935E+02   3.26265417E+02   3.26265417E+02
   9.00000000E-03   9.79274194E+05   2.15533461E+07   2.15533461E+07   1.88910495E+02   2.82376167E+02   2.82376167E+02
   9.20000000E-03   8.63132755E+05   1.89972360E+07   1.89972360E+07   1.61989554E+02   2.43961636E+02   2.43961636E+02
   9.40000000E-03   7.59966698E+05   1.67266834E+07   1.67266834E+07   1.38630107E+02   2.10419625E+02   2.10419625E+02
   9.60000000E-03   6.68458538E+05   1.47126949E+07   1.47126949E+07   1.18416289E+02   1.81198540E+02   1.81198540E+02
   9.80000000E-03   5.87401995E+05   1.29287241E+07   1.29287241E+07   1.00969438E+02   1.55796405E+02   1.55796405E+02
   1.00000000E-02   5.15696726E+05   1.13505559E+07   1.13505559E+07   8.59472615E+01   1.33759044E+02   1.33759044E+02
   1.02000000E-02   4.52342424E+05   9.95617658E+06   9.95617658E+06   7.30423368E+01   1.14677669E+02   1.14677669E+02
   1.04000000E-02   3.96432546E+05   8.72563589E+06   8.72563589E+06   6.19801635E+01   9.81860844E+01   9.81860844E+01
   1.06000000E-02   3.47147868E+05   7.64090496E+06   7.64090496E+06   5.25169287E+01   8.39576649E+01   8.39576649E+01
   1.08000000E-02   3.03750016E+05   6.68573426E+06   6.68573426E+06   4.44371143E+01   7.17022307E+01   7.17022307E+01
   1.10000000E-02   2.65575115E+05   5.84551356E+06   5.84551356E+06   3.75510494E+01   6.11629183E+01   6.11629183E+01
   1.12000000E-02   2.32027613E+05   5.10713629E+06   5.10713629E+06   3.16924835E+01   5.21131202E+01   5.21131202E+01
   1.14000000E-02   2.02574385E+05   4.45886953E+06   4.45886953E+06   2.67162362E+01   4.43535441E+01   4.43535441E+01
   1.16000000E-02   1.76739118E+05   3.89023075E+06   3.89023075E+06   2.24959626E+01   3.77094288E+01   3.77094288E+01
   1.18000000E-02   1.54097051E+05   3.39187178E+06   3.39187178E+06   1.89220606E+01   3.20279390E+01   3.20279390E+01
   1.20000000E-02   1.34270046E+05   2.95547052E+06   2.95547052E+06   1.58997339E+01   2.71757530E+01   2.71757530E+01
   1.22000000E-02   1.16922020E+05   2.57363035E+06   2.57363035E+06   1.33472182E+01   2.30368467E+01   2.30368467E+01
   1.24000000E-02   1.01754726E+05   2.23978735E+06   2.23978735E+06   1.11941719E+01   1.95104750E+01   1.95104750E+01
   1.26000000E-02   8.85038787E+04   1.94812495E+06   1.94812495E+06   9.38022571E+00   1.65093430E+01   1.65093430E+01
   1.28000000E-02   7.69356073E+04   1.69349596E+06   1.69349596E+06   7.85368613E+00   1.39579601E+01   1.39579601E+01
   1.30000000E-02   6.68432258E+04   1.47135144E+06   1.47135144E+06   6.57038213E+00   1.17911661E+01   1.17911661E+01
   1.32000000E-02   5.80442981E+04   1.27767614E+06   1.27767614E+06   5.49264547E+00   9.95281707E+00   9.95281707E+00
   1.34000000E-02   5.03779821E+04   1.10893007E+06   1.10893007E+06   4.58841329E+00   8.39461885E+00   8.39461885E+00
   1.36000000E-02   4.37026325E+04   9.61995679E+05   9.61995679E+05   3.83044188E+00   7.07509600E+00   7.07509600E+00
   1.38000000E-02   3.78936422E+04   8.34130435E+05   8.34130435E+05   3.19562053E+00   5.95868291E+00   5.95868291E+00
   1.40000000E-02   3.28415049E+04   7.22924133E+05   7.22924133E+05   2.66437505E+00   5.01492571E+00   5.01492571E+00
   1.42000000E-02   2.84500782E+04   6.26260693E+05   6.26260693E+05   2.22015086E+00   4.21778345E+00   4.21778345E+00
   1.44000000E-02   2.46350314E+04   5.42283996E+05   5.42283996E+05   1.84896655E+00   3.54501785E+00   3.54501785E+00
   1.46000000E-02   2.13224602E+04   4.69367396E+05   4.69367396E+05   1.53902925E+00   2.97766183E+00   2.97766183E+00
   1.48000000E-02   1.84476531E+04   4.06086571E+05   4.06086571E+05   1.28040435E+00   2.49955769E+00   2.49955769E+00
   1.50000000E-02   1.59539942E+04   3.51195379E+05   3.51195379E+05   1.06473235E+00   2.09695682E+00   2.09695682E+00
   1.52000000E-02   1.37919893E+04   3.03604422E+05   3.03604422E+05   8.84986842E-01   1.75817333E+00   1.75817333E+00
   1.54000000E-02   1.19184031E+04   2.62362057E+05   2.62362057E+05   7.35268076E-01   1.47328509E+00   1.47328509E+00
   1.56000000E-02   1.02954948E+04   2.26637579E+05   2.26637579E+05   6.10627107E-01   1.23387603E+00   1.23387603E+00
   1.58000000E-02   8.89034343E+03   1.95706357E+05   1.95706357E+05   5.06916423E-01   1.03281450E+00   1.03281450E+00
   1.60000000E-02   7.67425117E+03   1.68936722E+05   1.68936722E+05   4.20663189E-01   8.64062896E-01   8.64062896E-01
   1.62000000E-02   6.62221827E+03   1.45778395E+05   1.45778395E+05   3.48961903E-01   7.22514432E-01   7.22514432E-01
   1.64000000E-02   5.71248002E+03   1.25752304E+05   1.25752304E+05   2.89383608E-01   6.03853381E-01   6.03853381E-01
   1.66000000E-02   4.92609966E+03   1.08441619E+05   1.08441619E+05   2.39899237E-01   5.04435589E-01   5.04435589E-01
   1.68000000E-02   4.24661058E+03   9.34838820E+04   9.34838820E+04   1.98814957E-01   4.21186453E-01   4.21186453E-01
   1.70000000E-02   3.65970220E+03   8.05640917E+04   8.05640917E+04   1.64717719E-01   3.51513928E-01   3.51513928E-01
   1.72000000E-02   3.15294455E+03   6.94086391E+04   6.94086391E+04   1.36429449E-01   2.93234432E-01   2.93234432E-01
   1.74000000E-02   2.71554678E+03   5.97799955E+04   5.97799955E+04   1.12968558E-01   2.44509817E-01   2.44509817E-01
   1.76000000E-02   2.33814589E+03   5.14720601E+04   5.14720601E+04   9.35176255E-02   2.03793813E-01   2.03793813E-01
   1.78000000E-02   2.01262179E+03   4.43060912E+04   4.43060912E+04   7.73963076E-02   1.69786570E-01   1.69786570E-01
   1.80000000E-02   1.73193575E+03   3.81271487E+04   3.81271487E+04   6.40386330E-02   1.41396103E-01   1.41396103E-01
   1.82000000E-02   1.48998921E+03   3.28009880E+04   3.28009880E+04   5.29740004E-02   1.17705643E-01   1.17705643E-01
   1.84000000E-02   1.28150061E+03   2.82113479E+04   2.82113479E+04   4.38112851E-02   9.79459980E-02   9.79459980E-02
   1.86000000E-02   1.10189798E+03   2.42575866E+04   2.42575866E+04   3.62255558E-02   8.14721848E-02   8.14721848E-02
   1.88000000E-02   9.47225275E+02   2.08526201E+04   2.08526201E+04   2.99469819E-02   6.77436897E-02   6.77436897E-02
   1.90000000E-02   8.14060822E+02   1.79211273E+04   1.79211273E+04   2.47515767E-02   5.63078034E-02   5.63078034E-02
   1.92000000E-02   6.99446350E+02   1.53979876E+04   1.53979876E+04   2.04534764E-02   4.67855668E-02   4.67855668E-02
   1.94000000E-02   6.00825230E+02   1.32269215E+04   1.32269215E+04   1.68985056E-02   3.88599272E-02   3.88599272E-02
   1.96000000E-02   5.15988790E+02   1.13593088E+04   1.13593088E+04   1.39588175E-02   3.22657635E-02   3.22657635E-02
   1.98000000E-02   4.43029668E+02   9.75316219E+03   9.75316219E+03   1.15284308E-02   2.67814929E-02   2.67814929E-02
   2.00000000E-02   3.80301306E+02   8.37223518E+03   8.37223518E+03   9.51951703E-03   2.22220126E-02   2.22220126E-02
   2.02000000E-02   3.26382788E+02   7.18524846E+03   7.18524846E+03   7.85931213E-03   1.84327687E-02   1.84327687E-02
   2.04000000E-02   2.80048345E+02   6.16521837E+03   6.16521837E+03   6.48754932E-03   1.52847751E-02   1.52847751E-02
   2.06000000E-02   2.40240904E+02   5.28887485E+03   5.28887485E+03   5.35432582E-03   1.26704330E-02   1.26704330E-02
   2.08000000E-02   2.06049172E+02   4.53615690E+03   4.53615690E+03   4.41833105E-03   1.05000252E-02   1.05000252E-02
   2.10000000E-02   1.76687779E+02   3.88977552E+03   3.88977552E+03   3.64537555E-03   8.69877651E-03   8.69877651E-03
   2.12000000E-02   1.51480094E+02   3.33483537E+03   3.33483537E+03   3.00717007E-03   7.20439237E-03   7.20439237E-03
   2.14000000E-02   1.29843341E+02   2.85850724E+03   2.85850724E+03   2.48031258E-03   5.96499689E-03   5.96499689E-03
   2.16000000E-02   1.11275731E+02   2.44974472E+03   2.44974472E+03   2.04544822E-03   4.93740812E-03   4.93740812E-03
   2.18000000E-02   9.53453358E+01   2.09903926E+03   2.09903926E+03   1.68657266E-03   4.08569524E-03   4.08569524E-03
   2.20000000E-02   8.16804608E+01   1.79820831E+03   1.79820831E+03   1.39045484E-03   3.37997261E-03   3.37997261E-03
   2.22000000E-02   6.99613385E+01   1.54021242E+03   1.54021242E+03   1.14615852E-03   2.79539213E-03   2.79539213E-03
   2.24000000E-02   5.99129464E+01   1.31899715E+03   1.31899715E+03   9.44646006E-04   2.31130179E-03   2.31130179E-03
   2.26000000E-02   5.12988083E+01   1.12935662E+03   1.12935662E+03   7.78449927E-04   1.91054335E-03   1.91054335E-03
   2.28000000E-02   4.39156449E+01   9.66815752E+02   9.66815752E+02   6.41401519E-04   1.57886636E-03   1.57886636E-03
   2.30000000E-02   3.75887569E+01   8.27528622E+02   8.27528622E+02   5.28405681E-04   1.30443949E-03   1.30443949E-03
   2.32000000E-02   3.21680445E+01   7.08190846E+02   7.08190846E+02   4.35254833E-04   1.07744325E-03   1.07744325E-03
   2.34000000E-02   2.75245744E+01   6.05964006E+02   6.05964006E+02   3.58474905E-04   8.89730617E-04   8.89730617E-04
   2.36000000E-02   2.35476210E+01   5.18410518E+02   5.18410518E+02   2.95197933E-04   7.34544395E-04   7.34544395E-04
   2.38000000E-02   2.01421177E+01   4.43437512E+02   4.43437512E+02   2.43056702E-04   6.06281925E-04   6.06281925E-04
   2.40000000E-02   1.72264604E+01   3.79248493E+02   3.79248493E+02   2.00097627E-04   5.00299287E-04   5.00299287E-04
   2.42000000E-02   1.47306167E+01   3.24301713E+02   3.24301713E+02   1.64708727E-04   4.12748430E-04   4.12748430E-04
   2.44000000E-02   1.25944983E+01   2.77274333E+02   2.77274333E+02   1.35560103E-04   3.40441751E-04   3.40441751E-04
   2.46000000E-02   1.07665599E+01   2.37031585E+02   2.37031585E+02   1.11554740E-04   2.80739521E-04   2.80739521E-04
   2.48000000E-02   9.20259348E+00   2.02600238E+02   2.02600238E+02   9.17878651E-05   2.31456367E-04   2.31456367E-04
   2.50000000E-02   7.86469227E+00   1.73145769E+02   1.73145769E+02   7.55133669E-05   1.90783579E-04   1.90783579E-04
   2.52000000E-02   6.72035865E+00   1.47952743E+02   1.47952743E+02   6.21160664E-05   1.57224618E-04   1.57224618E-04
   2.54000000E-02   5.74173790E+00   1.26407937E+02   1.26407937E+02   5.10888131E-05   1.29541577E-04   1.29541577E-04
   2.56000000E-02   4.90495953E+00   1.07985838E+02   1.07985838E+02   4.20135756E-05   1.06710766E-04   1.06710766E-04
   2.58000000E-02   4.18957120E+00   9.22361845E+01   9.22361845E+01   3.45458305E-05   8.78858664E-05   8.78858664E-05
   2.60000000E-02   3.57805256E+00   7.87732635E+01   7.87732635E+01   2.84016777E-05   7.23673841E-05   7.23673841E-05
   2.62000000E-02   3.05539764E+00   6.72667146E+01   6.72667146E+01   2.33472059E-05   5.95773257E-05   5.95773257E-05
   2.64000000E-02   2.60875631E+00   5.74336391E+01   5.74336391E+01   1.91897179E-05   4.90382163E-05   4.90382163E-05
   2.66000000E-02   2.22712651E+00   4.90318232E+01   4.90318232E+01   1.57704913E-05   4.03557164E-05   4.03557164E-05
   2.68000000E-02   1.90109008E+00   4.18539228E+01   4.18539228E+01   1.29588068E-05   3.32042271E-05   3.32042271E-05
   2.70000000E-02   1.62258607E+00   3.57224739E+01   3.57224739E+01   1.06470225E-05   2.73149723E-05   2.73149723E-05
   2.72000000E-02   1.38471638E+00   3.04856116E+01   3.04856116E+01   8.74651192E-06   2.24661348E-05   2.24661348E-05
   2.74000000E-02   1.18157890E+00   2.60133988E+01   2.60133988E+01   7.18431545E-06   1.84746948E-05   1.84746948E-05
   2.76000000E-02   1.00812456E+00   2.21946779E+01   2.21946779E+01   5.90037871E-06   1.51896787E-05   1.51896787E-05
   2.78000000E-02   8.60034709E-01   1.89343717E+01   1.89343717E+01   4.84527683E-06   1.24865761E-05   1.24865761E-05
   2.80000000E-02   7.33616013E-01   1.61511698E+01   1.61511698E+01   3.97833857E-06   1.02627242E-05   1.02627242E-05
   2.82000000E-02   6.25710407E-01   1.37755456E+01   1.37755456E+01   3.26610058E-06   8.43349276E-06   8.43349276E-06
   2.84000000E-02   5.33617915E-01   1.17480578E+01   1.17480578E+01   2.68103370E-06   6.92913191E-06   6.92913191E-06
   2.86000000E-02   4.55030548E-01   1.00178947E+01   1.00178947E+01   2.20049373E-06   5.69216782E-06   5.69216782E-06
   2.88000000E-02   3.87975680E-01   8.54162764E+00   8.54162764E+00   1.80585715E-06   4.67525216E-06   4.67525216E-06
   2.90000000E-02   3.30767553E-01   7.28214379E+00   7.28214379E+00   1.48180923E-06   3.83938624E-06   3.83938624E-06
   2.92000000E-02   2.81965768E-01   6.20773181E+00   6.20773181E+00   1.21575790E-06   3.15245514E-06   3.15245514E-06
   2.94000000E-02   2.40339740E-01   5.29129957E+00   5.29129957E+00   9.97351117E-07   2.58801793E-06   2.58801793E-06
   2.96000000E-02   2.04838279E-01   4.50970440E+00   4.50970440E+00   8.18079473E-07   2.12430951E-06   2.12430951E-06
   2.98000000E-02   1.74563555E-01   3.84318000E+00   3.84318000E+00   6.70949184E-07   1.74341720E-06   1.74341720E-06
   3.00000000E-02   1.48748830E-01   3.27484604E+00   3.27484604E+00   5.50212890E-07   1.43060170E-06   1.43060170E-06
   3.02000000E-02   1.26739397E-01   2.79028869E+00   2.79028869E+00   4.51148147E-07   1.17373720E-06   1.17373720E-06
   3.04000000E-02   1.07976283E-01   2.37720178E+00   2.37720178E+00   3.69875165E-07   9.62849804E-07   9.62849804E-07
   3.06000000E-02   9.19823139E-02   2.02507992E+00   2.02507992E+00   3.03206873E-07   7.89737177E-07   7.89737177E-07
   3.08000000E-02   7.83501889E-02   1.72495608E+00   1.72495608E+00   2.48525575E-07   6.47655078E-07   6.47655078E-07
   3.10000000E-02   6.67322948E-02   1.46917728E+00   1.46917728E+00   2.03681516E-07   5.31059161E-07   5.31059161E-07
   3.12000000E-02   5.68319933E-02   1.25121280E+00   1.25121280E+00   1.66909457E-07   4.35392297E-07   4.35392297E-07
   3.14000000E-02   4.83961761E-02   1.06549025E+00   1.06549025E+00   1.36760090E-07   3.56909442E-07   3.56909442E-07
   3.16000000E-02   4.12089018E-02   9.07255498E-01   9.07255498E-01   1.12043649E-07   2.92533452E-07   2.92533452E-07
   3.18000000E-02   3.50859597E-02   7.72452991E-01   7.72452991E-01   9.17835525E-08   2.39736392E-07   2.39736392E-07
   3.20000000E-02   2.98702248E-02   6.57623487E-01   6.57623487E-01   7.51783104E-08   1.96441861E-07   1.96441861E-07
   3.22000000E-02   2.54276899E-02   5.59816705E-01   5.59816705E-01   6.15702147E-08   1.60944620E-07   1.60944620E-07
   3.24000000E-02   2.16440773E-02   4.76516716E-01   4.76516716E-01   5.04196140E-08   1.31844473E-07   1.31844473E-07
   3.26000000E-02   1.84219439E-02   4.05578227E-01   4.05578227E-01   4.12837789E-08   1.07991882E-07   1.07991882E-07
   3.28000000E-02   1.56782106E-02   3.45172175E-01   3.45172175E-01   3.37995396E-08   8.84432471E-08   8.84432471E-08
