# TBinMid=0.055 ssec TBinWidth=0.01 ss EBinWidth=0.2MeV Fluence at Earth for this timebin in neutrinos per cm^2
# E(GeV)	NuE	NuMu	NuTau	aNuE	aNuMu	aNuTau
   1.38589050E-13   8.14023688E-19   4.25498782E-19   4.25498782E-19   2.65682256E-19   6.99669498E-19   6.99669498E-19
   2.00000000E-04   4.83664366E+05   2.71049745E+05   2.71049745E+05   1.58403815E+05   4.15182515E+05   4.15182515E+05
   4.00000000E-04   2.80730649E+06   1.85056542E+06   1.85056542E+06   9.35101902E+05   2.40339423E+06   2.40339423E+06
   6.00000000E-04   7.73285456E+06   6.20732382E+06   6.20732382E+06   2.66432216E+06   6.60057684E+06   6.60057684E+06
   8.00000000E-04   1.57090299E+07   1.53573422E+07   1.53573422E+07   5.69077309E+06   1.33739771E+07   1.33739771E+07
   1.00000000E-03   2.70138690E+07   3.16837577E+07   3.16837577E+07   1.04317831E+07   2.29575850E+07   2.29575850E+07
   1.20000000E-03   4.18060680E+07   5.76756609E+07   5.76756609E+07   1.73874072E+07   3.55051981E+07   3.55051981E+07
   1.40000000E-03   6.01507188E+07   9.56851371E+07   9.56851371E+07   2.71275804E+07   5.11169053E+07   5.11169053E+07
   1.60000000E-03   8.20349646E+07   1.47734466E+08   1.47734466E+08   4.02676530E+07   6.98529334E+07   6.98529334E+07
   1.80000000E-03   1.07379306E+08   2.15381648E+08   2.15381648E+08   5.74389614E+07   9.17407178E+07   9.17407178E+07
   2.00000000E-03   1.36046998E+08   2.99641638E+08   2.99641638E+08   7.92587029E+07   1.16778248E+08   1.16778248E+08
   2.20000000E-03   1.67852595E+08   4.00955825E+08   4.00955825E+08   1.06301857E+08   1.44935456E+08   1.44935456E+08
   2.40000000E-03   2.02570082E+08   5.19200450E+08   5.19200450E+08   1.39076824E+08   1.76154716E+08   1.76154716E+08
   2.60000000E-03   2.39940690E+08   6.53724528E+08   6.53724528E+08   1.78005680E+08   2.10351112E+08   2.10351112E+08
   2.80000000E-03   2.79680403E+08   8.03408520E+08   8.03408520E+08   2.23409417E+08   2.47412855E+08   2.47412855E+08
   3.00000000E-03   3.21487059E+08   9.66736140E+08   9.66736140E+08   2.75498125E+08   2.87202063E+08   2.87202063E+08
   3.20000000E-03   3.65046959E+08   1.14187296E+09   1.14187296E+09   3.34365833E+08   3.29555997E+08   3.29555997E+08
   3.40000000E-03   4.10040921E+08   1.32674672E+09   1.32674672E+09   3.99989547E+08   3.74288755E+08   3.74288755E+08
   3.60000000E-03   4.56149702E+08   1.51912551E+09   1.51912551E+09   4.72231943E+08   4.21193407E+08   4.21193407E+08
   3.80000000E-03   5.03058762E+08   1.71669091E+09   1.71669091E+09   5.50847092E+08   4.70044496E+08   4.70044496E+08
   4.00000000E-03   5.50462356E+08   1.91710425E+09   1.91710425E+09   6.35488650E+08   5.20600825E+08   5.20600825E+08
   4.20000000E-03   5.98066962E+08   2.11806465E+09   2.11806465E+09   7.25719899E+08   5.72608443E+08   5.72608443E+08
   4.40000000E-03   6.45594065E+08   2.31735843E+09   2.31735843E+09   8.21025127E+08   6.25803746E+08   6.25803746E+08
   4.60000000E-03   6.92782341E+08   2.51289962E+09   2.51289962E+09   9.20821837E+08   6.79916613E+08   6.79916613E+08
   4.80000000E-03   7.39389271E+08   2.70276186E+09   2.70276186E+09   1.02447338E+09   7.34673502E+08   7.34673502E+08
   5.00000000E-03   7.85192257E+08   2.88520216E+09   2.88520216E+09   1.13130160E+09   7.89800441E+08   7.89800441E+08
   5.20000000E-03   8.29989277E+08   3.05867725E+09   3.05867725E+09   1.24059928E+09   8.45025873E+08   8.45025873E+08
   5.40000000E-03   8.73599149E+08   3.22185315E+09   3.22185315E+09   1.35164196E+09   9.00083292E+08   9.00083292E+08
   5.60000000E-03   9.15861446E+08   3.37360900E+09   3.37360900E+09   1.46369916E+09   9.54713663E+08   9.54713663E+08
   5.80000000E-03   9.56636129E+08   3.51303578E+09   3.51303578E+09   1.57604463E+09   1.00866758E+09   1.00866758E+09
   6.00000000E-03   9.95802939E+08   3.63943090E+09   3.63943090E+09   1.68796572E+09   1.06170717E+09   1.06170717E+09
   6.20000000E-03   1.03326060E+09   3.75228935E+09   3.75228935E+09   1.79877166E+09   1.11360770E+09   1.11360770E+09
   6.40000000E-03   1.06892587E+09   3.85129227E+09   3.85129227E+09   1.90780079E+09   1.16415897E+09   1.16415897E+09
   6.60000000E-03   1.10273247E+09   3.93629346E+09   3.93629346E+09   2.01442668E+09   1.21316633E+09   1.21316633E+09
   6.80000000E-03   1.13462999E+09   4.00730451E+09   4.00730451E+09   2.11806329E+09   1.26045158E+09   1.26045158E+09
   7.00000000E-03   1.16458268E+09   4.06447905E+09   4.06447905E+09   2.21816897E+09   1.30585351E+09   1.30585351E+09
   7.20000000E-03   1.19256821E+09   4.10809661E+09   4.10809661E+09   2.31424963E+09   1.34922823E+09   1.34922823E+09
   7.40000000E-03   1.21857657E+09   4.13854644E+09   4.13854644E+09   2.40586089E+09   1.39044939E+09   1.39044939E+09
   7.60000000E-03   1.24260878E+09   4.15631156E+09   4.15631156E+09   2.49260945E+09   1.42940804E+09   1.42940804E+09
   7.80000000E-03   1.26467579E+09   4.16195339E+09   4.16195339E+09   2.57415373E+09   1.46601244E+09   1.46601244E+09
   8.00000000E-03   1.28479737E+09   4.15609710E+09   4.15609710E+09   2.65020370E+09   1.50018773E+09   1.50018773E+09
   8.20000000E-03   1.30300103E+09   4.13941784E+09   4.13941784E+09   2.72052028E+09   1.53187532E+09   1.53187532E+09
   8.40000000E-03   1.31932103E+09   4.11262797E+09   4.11262797E+09   2.78491406E+09   1.56103237E+09   1.56103237E+09
   8.60000000E-03   1.33379747E+09   4.07646531E+09   4.07646531E+09   2.84324365E+09   1.58763100E+09   1.58763100E+09
   8.80000000E-03   1.34647536E+09   4.03168260E+09   4.03168260E+09   2.89541363E+09   1.61165755E+09   1.61165755E+09
   9.00000000E-03   1.35740386E+09   3.97903792E+09   3.97903792E+09   2.94137220E+09   1.63311169E+09   1.63311169E+09
   9.20000000E-03   1.36663554E+09   3.91928636E+09   3.91928636E+09   2.98110855E+09   1.65200553E+09   1.65200553E+09
   9.40000000E-03   1.37422567E+09   3.85317264E+09   3.85317264E+09   3.01465009E+09   1.66836271E+09   1.66836271E+09
   9.60000000E-03   1.38023166E+09   3.78142484E+09   3.78142484E+09   3.04205955E+09   1.68221744E+09   1.68221744E+09
   9.80000000E-03   1.38471247E+09   3.70474911E+09   3.70474911E+09   3.06343192E+09   1.69361355E+09   1.69361355E+09
   1.00000000E-02   1.38772814E+09   3.62382520E+09   3.62382520E+09   3.07889146E+09   1.70260355E+09   1.70260355E+09
   1.02000000E-02   1.38933933E+09   3.53930295E+09   3.53930295E+09   3.08858864E+09   1.70924769E+09   1.70924769E+09
   1.04000000E-02   1.38960697E+09   3.45179950E+09   3.45179950E+09   3.09269713E+09   1.71361306E+09   1.71361306E+09
   1.06000000E-02   1.38859190E+09   3.36189724E+09   3.36189724E+09   3.09141086E+09   1.71577269E+09   1.71577269E+09
   1.08000000E-02   1.38635459E+09   3.27014234E+09   3.27014234E+09   3.08494114E+09   1.71580469E+09   1.71580469E+09
   1.10000000E-02   1.38295486E+09   3.17704391E+09   3.17704391E+09   3.07351397E+09   1.71379148E+09   1.71379148E+09
   1.12000000E-02   1.37845171E+09   3.08307363E+09   3.08307363E+09   3.05736737E+09   1.70981896E+09   1.70981896E+09
   1.14000000E-02   1.37290308E+09   2.98866579E+09   2.98866579E+09   3.03674890E+09   1.70397582E+09   1.70397582E+09
   1.16000000E-02   1.36636576E+09   2.89421779E+09   2.89421779E+09   3.01191335E+09   1.69635283E+09   1.69635283E+09
   1.18000000E-02   1.35889522E+09   2.80009084E+09   2.80009084E+09   2.98312054E+09   1.68704221E+09   1.68704221E+09
   1.20000000E-02   1.35054553E+09   2.70661102E+09   2.70661102E+09   2.95063328E+09   1.67613706E+09   1.67613706E+09
   1.22000000E-02   1.34136929E+09   2.61407051E+09   2.61407051E+09   2.91471555E+09   1.66373076E+09   1.66373076E+09
   1.24000000E-02   1.33141753E+09   2.52272901E+09   2.52272901E+09   2.87563078E+09   1.64991654E+09   1.64991654E+09
   1.26000000E-02   1.32073973E+09   2.43281529E+09   2.43281529E+09   2.83364030E+09   1.63478699E+09   1.63478699E+09
   1.28000000E-02   1.30938373E+09   2.34452884E+09   2.34452884E+09   2.78900199E+09   1.61843365E+09   1.61843365E+09
   1.30000000E-02   1.29739575E+09   2.25804156E+09   2.25804156E+09   2.74196899E+09   1.60094665E+09   1.60094665E+09
   1.32000000E-02   1.28482037E+09   2.17349956E+09   2.17349956E+09   2.69278869E+09   1.58241441E+09   1.58241441E+09
   1.34000000E-02   1.27170056E+09   2.09102490E+09   2.09102490E+09   2.64170171E+09   1.56292334E+09   1.56292334E+09
   1.36000000E-02   1.25807766E+09   2.01071735E+09   2.01071735E+09   2.58894116E+09   1.54255758E+09   1.54255758E+09
   1.38000000E-02   1.24399139E+09   1.93265615E+09   1.93265615E+09   2.53473191E+09   1.52139882E+09   1.52139882E+09
   1.40000000E-02   1.22947993E+09   1.85690169E+09   1.85690169E+09   2.47929002E+09   1.49952610E+09   1.49952610E+09
   1.42000000E-02   1.21457988E+09   1.78349720E+09   1.78349720E+09   2.42282234E+09   1.47701570E+09   1.47701570E+09
   1.44000000E-02   1.19932636E+09   1.71247032E+09   1.71247032E+09   2.36552607E+09   1.45394097E+09   1.45394097E+09
   1.46000000E-02   1.18375296E+09   1.64383465E+09   1.64383465E+09   2.30758859E+09   1.43037231E+09   1.43037231E+09
   1.48000000E-02   1.16789188E+09   1.57759117E+09   1.57759117E+09   2.24918724E+09   1.40637703E+09   1.40637703E+09
   1.50000000E-02   1.15177387E+09   1.51372965E+09   1.51372965E+09   2.19048922E+09   1.38201937E+09   1.38201937E+09
   1.52000000E-02   1.13542833E+09   1.45222995E+09   1.45222995E+09   2.13165161E+09   1.35736045E+09   1.35736045E+09
   1.54000000E-02   1.11888333E+09   1.39306324E+09   1.39306324E+09   2.07282137E+09   1.33245830E+09   1.33245830E+09
   1.56000000E-02   1.10216565E+09   1.33619310E+09   1.33619310E+09   2.01413549E+09   1.30736780E+09   1.30736780E+09
   1.58000000E-02   1.08530083E+09   1.28157664E+09   1.28157664E+09   1.95572107E+09   1.28214081E+09   1.28214081E+09
   1.60000000E-02   1.06831319E+09   1.22916542E+09   1.22916542E+09   1.89769559E+09   1.25682611E+09   1.25682611E+09
   1.62000000E-02   1.05122589E+09   1.17890637E+09   1.17890637E+09   1.84016711E+09   1.23146955E+09   1.23146955E+09
   1.64000000E-02   1.03406095E+09   1.13074264E+09   1.13074264E+09   1.78323451E+09   1.20611404E+09   1.20611404E+09
   1.66000000E-02   1.01683931E+09   1.08461428E+09   1.08461428E+09   1.72698785E+09   1.18079965E+09   1.18079965E+09
   1.68000000E-02   9.99580859E+08   1.04045902E+09   1.04045902E+09   1.67150862E+09   1.15556370E+09   1.15556370E+09
   1.70000000E-02   9.82304449E+08   9.98212804E+08   9.98212804E+08   1.61687011E+09   1.13044084E+09   1.13044084E+09
   1.72000000E-02   9.65027964E+08   9.57810366E+08   9.57810366E+08   1.56313775E+09   1.10546311E+09   1.10546311E+09
   1.74000000E-02   9.47768338E+08   9.19185743E+08   9.19185743E+08   1.51036947E+09   1.08066007E+09   1.08066007E+09
   1.76000000E-02   9.30541591E+08   8.82272695E+08   8.82272695E+08   1.45861606E+09   1.05605889E+09   1.05605889E+09
   1.78000000E-02   9.13362859E+08   8.47005099E+08   8.47005099E+08   1.40792157E+09   1.03168445E+09   1.03168445E+09
   1.80000000E-02   8.96246433E+08   8.13317288E+08   8.13317288E+08   1.35832363E+09   1.00755941E+09   1.00755941E+09
   1.82000000E-02   8.79205781E+08   7.81144343E+08   7.81144343E+08   1.30985385E+09   9.83704359E+08   9.83704359E+08
   1.84000000E-02   8.62253586E+08   7.50422352E+08   7.50422352E+08   1.26253821E+09   9.60137876E+08   9.60137876E+08
   1.86000000E-02   8.45401769E+08   7.21088623E+08   7.21088623E+08   1.21639737E+09   9.36876652E+08   9.36876652E+08
   1.88000000E-02   8.28661521E+08   6.93081870E+08   6.93081870E+08   1.17144706E+09   9.13935582E+08   9.13935582E+08
   1.90000000E-02   8.12043328E+08   6.66342361E+08   6.66342361E+08   1.12769841E+09   8.91327861E+08   8.91327861E+08
   1.92000000E-02   7.95556998E+08   6.40812044E+08   6.40812044E+08   1.08515829E+09   8.69065083E+08   8.69065083E+08
   1.94000000E-02   7.79211686E+08   6.16434645E+08   6.16434645E+08   1.04382966E+09   8.47157332E+08   8.47157332E+08
   1.96000000E-02   7.63015923E+08   5.93155739E+08   5.93155739E+08   1.00371184E+09   8.25613275E+08   8.25613275E+08
   1.98000000E-02   7.46977634E+08   5.70922809E+08   5.70922809E+08   9.64800854E+08   8.04440248E+08   8.04440248E+08
   2.00000000E-02   7.31104164E+08   5.49685278E+08   5.49685278E+08   9.27089685E+08   7.83644342E+08   7.83644342E+08
   2.02000000E-02   7.15402302E+08   5.29394532E+08   5.29394532E+08   8.90568584E+08   7.63230490E+08   7.63230490E+08
   2.04000000E-02   6.99878303E+08   5.10003926E+08   5.10003926E+08   8.55225316E+08   7.43202538E+08   7.43202538E+08
   2.06000000E-02   6.84537907E+08   4.91468773E+08   4.91468773E+08   8.21045419E+08   7.23563331E+08   7.23563331E+08
   2.08000000E-02   6.69386361E+08   4.73746334E+08   4.73746334E+08   7.88012436E+08   7.04314776E+08   7.04314776E+08
   2.10000000E-02   6.54428442E+08   4.56795783E+08   4.56795783E+08   7.56108146E+08   6.85457921E+08   6.85457921E+08
   2.12000000E-02   6.39668470E+08   4.40578181E+08   4.40578181E+08   7.25312770E+08   6.66993017E+08   6.66993017E+08
   2.14000000E-02   6.25110335E+08   4.25056428E+08   4.25056428E+08   6.95605176E+08   6.48919581E+08   6.48919581E+08
   2.16000000E-02   6.10757511E+08   4.10195222E+08   4.10195222E+08   6.66963061E+08   6.31236459E+08   6.31236459E+08
   2.18000000E-02   5.96613072E+08   3.95961004E+08   3.95961004E+08   6.39363127E+08   6.13941879E+08   6.13941879E+08
   2.20000000E-02   5.82679715E+08   3.82321907E+08   3.82321907E+08   6.12781245E+08   5.97033511E+08   5.97033511E+08
   2.22000000E-02   5.68959774E+08   3.69247695E+08   3.69247695E+08   5.87192602E+08   5.80508512E+08   5.80508512E+08
   2.24000000E-02   5.55455235E+08   3.56709708E+08   3.56709708E+08   5.62571843E+08   5.64363579E+08   5.64363579E+08
   2.26000000E-02   5.42167756E+08   3.44680800E+08   3.44680800E+08   5.38893199E+08   5.48594990E+08   5.48594990E+08
   2.28000000E-02   5.29098679E+08   3.33135275E+08   3.33135275E+08   5.16130608E+08   5.33198649E+08   5.33198649E+08
   2.30000000E-02   5.16249046E+08   3.22048831E+08   3.22048831E+08   4.94257822E+08   5.18170127E+08   5.18170127E+08
   2.32000000E-02   5.03619615E+08   3.11398493E+08   3.11398493E+08   4.73248503E+08   5.03504697E+08   5.03504697E+08
   2.34000000E-02   4.91210873E+08   3.01162555E+08   3.01162555E+08   4.53076323E+08   4.89197368E+08   4.89197368E+08
   2.36000000E-02   4.79023049E+08   2.91320519E+08   2.91320519E+08   4.33715034E+08   4.75242922E+08   4.75242922E+08
   2.38000000E-02   4.67056131E+08   2.81853038E+08   2.81853038E+08   4.15138554E+08   4.61635939E+08   4.61635939E+08
   2.40000000E-02   4.55309875E+08   2.72741856E+08   2.72741856E+08   3.97321026E+08   4.48370828E+08   4.48370828E+08
   2.42000000E-02   4.43783817E+08   2.63969750E+08   2.63969750E+08   3.80236878E+08   4.35441855E+08   4.35441855E+08
   2.44000000E-02   4.32477292E+08   2.55520481E+08   2.55520481E+08   3.63860880E+08   4.22843162E+08   4.22843162E+08
   2.46000000E-02   4.21389435E+08   2.47378736E+08   2.47378736E+08   3.48168188E+08   4.10568793E+08   4.10568793E+08
   2.48000000E-02   4.10519203E+08   2.39530081E+08   2.39530081E+08   3.33134387E+08   3.98612713E+08   3.98612713E+08
   2.50000000E-02   3.99865379E+08   2.31960908E+08   2.31960908E+08   3.18735521E+08   3.86968829E+08   3.86968829E+08
   2.52000000E-02   3.89426585E+08   2.24658392E+08   2.24658392E+08   3.04948131E+08   3.75631005E+08   3.75631005E+08
   2.54000000E-02   3.79201294E+08   2.17610443E+08   2.17610443E+08   2.91749276E+08   3.64593079E+08   3.64593079E+08
   2.56000000E-02   3.69187834E+08   2.10805663E+08   2.10805663E+08   2.79116557E+08   3.53848878E+08   3.53848878E+08
   2.58000000E-02   3.59384406E+08   2.04233308E+08   2.04233308E+08   2.67028131E+08   3.43392229E+08   3.43392229E+08
   2.60000000E-02   3.49789086E+08   1.97883245E+08   1.97883245E+08   2.55462730E+08   3.33216976E+08   3.33216976E+08
   2.62000000E-02   3.40399837E+08   1.91745916E+08   1.91745916E+08   2.44399667E+08   3.23316983E+08   3.23316983E+08
   2.64000000E-02   3.31214517E+08   1.85812306E+08   1.85812306E+08   2.33818848E+08   3.13686153E+08   3.13686153E+08
   2.66000000E-02   3.22230889E+08   1.80073903E+08   1.80073903E+08   2.23700773E+08   3.04318430E+08   3.04318430E+08
   2.68000000E-02   3.13446624E+08   1.74522674E+08   1.74522674E+08   2.14026538E+08   2.95207811E+08   2.95207811E+08
   2.70000000E-02   3.04859314E+08   1.69151029E+08   1.69151029E+08   2.04777840E+08   2.86348349E+08   2.86348349E+08
   2.72000000E-02   2.96466476E+08   1.63951797E+08   1.63951797E+08   1.95936968E+08   2.77734164E+08   2.77734164E+08
   2.74000000E-02   2.88265560E+08   1.58918195E+08   1.58918195E+08   1.87486806E+08   2.69359447E+08   2.69359447E+08
   2.76000000E-02   2.80253955E+08   1.54043808E+08   1.54043808E+08   1.79410822E+08   2.61218462E+08   2.61218462E+08
   2.78000000E-02   2.72428996E+08   1.49322563E+08   1.49322563E+08   1.71693064E+08   2.53305554E+08   2.53305554E+08
   2.80000000E-02   2.64787970E+08   1.44748706E+08   1.44748706E+08   1.64318150E+08   2.45615153E+08   2.45615153E+08
   2.82000000E-02   2.57328120E+08   1.40316784E+08   1.40316784E+08   1.57271260E+08   2.38141774E+08   2.38141774E+08
   2.84000000E-02   2.50046654E+08   1.36021624E+08   1.36021624E+08   1.50538125E+08   2.30880020E+08   2.30880020E+08
   2.86000000E-02   2.42940749E+08   1.31858315E+08   1.31858315E+08   1.44105017E+08   2.23824589E+08   2.23824589E+08
   2.88000000E-02   2.36007552E+08   1.27822189E+08   1.27822189E+08   1.37958734E+08   2.16970269E+08   2.16970269E+08
   2.90000000E-02   2.29244191E+08   1.23908811E+08   1.23908811E+08   1.32086592E+08   2.10311945E+08   2.10311945E+08
   2.92000000E-02   2.22647776E+08   1.20113957E+08   1.20113957E+08   1.26476409E+08   2.03844598E+08   2.03844598E+08
   2.94000000E-02   2.16215402E+08   1.16433607E+08   1.16433607E+08   1.21116490E+08   1.97563304E+08   1.97563304E+08
   2.96000000E-02   2.09944159E+08   1.12863925E+08   1.12863925E+08   1.15995619E+08   1.91463240E+08   1.91463240E+08
   2.98000000E-02   2.03831127E+08   1.09401254E+08   1.09401254E+08   1.11103041E+08   1.85539676E+08   1.85539676E+08
   3.00000000E-02   1.97873387E+08   1.06042101E+08   1.06042101E+08   1.06428447E+08   1.79787984E+08   1.79787984E+08
   3.02000000E-02   1.92068023E+08   1.02783126E+08   1.02783126E+08   1.01961965E+08   1.74203631E+08   1.74203631E+08
   3.04000000E-02   1.86412122E+08   9.96211337E+07   9.96211337E+07   9.76941394E+07   1.68782181E+08   1.68782181E+08
   3.06000000E-02   1.80902778E+08   9.65530662E+07   9.65530662E+07   9.36159235E+07   1.63519297E+08   1.63519297E+08
   3.08000000E-02   1.75537100E+08   9.35759913E+07   9.35759913E+07   8.97186608E+07   1.58410735E+08   1.58410735E+08
   3.10000000E-02   1.70312207E+08   9.06870968E+07   9.06870968E+07   8.59940732E+07   1.53452348E+08   1.53452348E+08
   3.12000000E-02   1.65225235E+08   8.78836828E+07   8.78836828E+07   8.24342471E+07   1.48640084E+08   1.48640084E+08
   3.14000000E-02   1.60273339E+08   8.51631549E+07   8.51631549E+07   7.90316199E+07   1.43969982E+08   1.43969982E+08
   3.16000000E-02   1.55453695E+08   8.25230184E+07   8.25230184E+07   7.57789666E+07   1.39438174E+08   1.39438174E+08
   3.18000000E-02   1.50763501E+08   7.99608720E+07   7.99608720E+07   7.26693873E+07   1.35040884E+08   1.35040884E+08
   3.20000000E-02   1.46199980E+08   7.74744031E+07   7.74744031E+07   6.96962940E+07   1.30774424E+08   1.30774424E+08
   3.22000000E-02   1.41760380E+08   7.50613822E+07   7.50613822E+07   6.68533985E+07   1.26635195E+08   1.26635195E+08
   3.24000000E-02   1.37441978E+08   7.27196589E+07   7.27196589E+07   6.41347003E+07   1.22619685E+08   1.22619685E+08
   3.26000000E-02   1.33242082E+08   7.04471573E+07   7.04471573E+07   6.15344746E+07   1.18724468E+08   1.18724468E+08
   3.28000000E-02   1.29158027E+08   6.82418720E+07   6.82418720E+07   5.90472613E+07   1.14946201E+08   1.14946201E+08
