# TBinMid=0.045 ssec TBinWidth=0.01 ss EBinWidth=0.2MeV Fluence at Earth for this timebin in neutrinos per cm^2
# E(GeV)	NuE	NuMu	NuTau	aNuE	aNuMu	aNuTau
   1.38589050E-13   4.19892512E-19   2.19482252E-19   2.19482252E-19   1.37045139E-19   3.60905939E-19   3.60905939E-19
   2.00000000E-04   4.44586270E+05   2.44377616E+05   2.44377616E+05   1.45688870E+05   3.81830889E+05   3.81830889E+05
   4.00000000E-04   2.62749920E+06   1.65748390E+06   1.65748390E+06   8.76597743E+05   2.25249897E+06   2.25249897E+06
   6.00000000E-04   7.31038517E+06   5.53970428E+06   5.53970428E+06   2.52521768E+06   6.25344755E+06   6.25344755E+06
   8.00000000E-04   1.49532495E+07   1.37597060E+07   1.37597060E+07   5.43458415E+06   1.27659500E+07   1.27659500E+07
   1.00000000E-03   2.58504957E+07   2.86425806E+07   2.86425806E+07   1.00176394E+07   2.20382105E+07   2.20382105E+07
   1.20000000E-03   4.01809028E+07   5.27319554E+07   5.27319554E+07   1.67670846E+07   3.42364243E+07   3.42364243E+07
   1.40000000E-03   5.80321839E+07   8.85384464E+07   8.85384464E+07   2.62427539E+07   4.94706815E+07   4.94706815E+07
   1.60000000E-03   7.94152623E+07   1.38320765E+08   1.38320765E+08   3.90474711E+07   6.78087331E+07   6.78087331E+07
   1.80000000E-03   1.04274139E+08   2.03918311E+08   2.03918311E+08   5.57979529E+07   8.92831855E+07   8.92831855E+07
   2.00000000E-03   1.32493968E+08   2.86639644E+08   2.86639644E+08   7.70950232E+07   1.13895060E+08   1.13895060E+08
   2.20000000E-03   1.63908525E+08   3.87203442E+08   3.87203442E+08   1.03495887E+08   1.41615436E+08   1.41615436E+08
   2.40000000E-03   1.98307546E+08   5.05724688E+08   5.05724688E+08   1.35490148E+08   1.72386222E+08   1.72386222E+08
   2.60000000E-03   2.35444083E+08   6.41737216E+08   6.41737216E+08   1.73480480E+08   2.06120698E+08   2.06120698E+08
   2.80000000E-03   2.75041813E+08   7.94243593E+08   7.94243593E+08   2.17768297E+08   2.42704212E+08   2.42704212E+08
   3.00000000E-03   3.16802200E+08   9.61783895E+08   9.61783895E+08   2.68544400E+08   2.81995218E+08   2.81995218E+08
   3.20000000E-03   3.60411365E+08   1.14251598E+09   1.14251598E+09   3.25884282E+08   3.23826764E+08   3.23826764E+08
   3.40000000E-03   4.05546530E+08   1.33430108E+09   1.33430108E+09   3.89747626E+08   3.68008431E+08   3.68008431E+08
   3.60000000E-03   4.51881940E+08   1.53478969E+09   1.53478969E+09   4.59981433E+08   4.14328677E+08   4.14328677E+08
   3.80000000E-03   4.99094176E+08   1.74150405E+09   1.74150405E+09   5.36326158E+08   4.62557536E+08   4.62557536E+08
   4.00000000E-03   5.46866806E+08   1.95191433E+09   1.95191433E+09   6.18424250E+08   5.12449577E+08   5.12449577E+08
   4.20000000E-03   5.94894370E+08   2.16350684E+09   2.16350684E+09   7.05830507E+08   5.63747038E+08   5.63747038E+08
   4.40000000E-03   6.42885680E+08   2.37384292E+09   2.37384292E+09   7.98023687E+08   6.16183050E+08   6.16183050E+08
   4.60000000E-03   6.90566472E+08   2.58060830E+09   2.58060830E+09   8.94418904E+08   6.69484873E+08   6.69484873E+08
   4.80000000E-03   7.37681433E+08   2.78165266E+09   2.78165266E+09   9.94380360E+08   7.23377059E+08   7.23377059E+08
   5.00000000E-03   7.83995661E+08   2.97501999E+09   2.97501999E+09   1.09723405E+09   7.77584503E+08   7.77584503E+08
   5.20000000E-03   8.29295603E+08   3.15897009E+09   3.15897009E+09   1.20228015E+09   8.31835304E+08   8.31835304E+08
   5.40000000E-03   8.73389533E+08   3.33199231E+09   3.33199231E+09   1.30880480E+09   8.85863421E+08   8.85863421E+08
   5.60000000E-03   9.16107628E+08   3.49281207E+09   3.49281207E+09   1.41609113E+09   9.39411075E+08   9.39411075E+08
   5.80000000E-03   9.57301698E+08   3.64039147E+09   3.64039147E+09   1.52342940E+09   9.92230883E+08   9.92230883E+08
   6.00000000E-03   9.96844639E+08   3.77392465E+09   3.77392465E+09   1.63012607E+09   1.04408772E+09   1.04408772E+09
   6.20000000E-03   1.03462964E+09   3.89282893E+09   3.89282893E+09   1.73551186E+09   1.09476029E+09   1.09476029E+09
   6.40000000E-03   1.07056920E+09   3.99673268E+09   3.99673268E+09   1.83894865E+09   1.14404240E+09   1.14404240E+09
   6.60000000E-03   1.10459406E+09   4.08546052E+09   4.08546052E+09   1.93983537E+09   1.19174403E+09   1.19174403E+09
   6.80000000E-03   1.13665194E+09   4.15901678E+09   4.15901678E+09   2.03761273E+09   1.23769201E+09   1.23769201E+09
   7.00000000E-03   1.16670630E+09   4.21756775E+09   4.21756775E+09   2.13176699E+09   1.28173058E+09   1.28173058E+09
   7.20000000E-03   1.19473504E+09   4.26142327E+09   4.26142327E+09   2.22183273E+09   1.32372164E+09   1.32372164E+09
   7.40000000E-03   1.22072916E+09   4.29101822E+09   4.29101822E+09   2.30739472E+09   1.36354482E+09   1.36354482E+09
   7.60000000E-03   1.24469148E+09   4.30689418E+09   4.30689418E+09   2.38808897E+09   1.40109735E+09   1.40109735E+09
   7.80000000E-03   1.26663538E+09   4.30968169E+09   4.30968169E+09   2.46360303E+09   1.43629377E+09   1.43629377E+09
   8.00000000E-03   1.28658354E+09   4.30008332E+09   4.30008332E+09   2.53367564E+09   1.46906544E+09   1.46906544E+09
   8.20000000E-03   1.30456684E+09   4.27885775E+09   4.27885775E+09   2.59809573E+09   1.49936002E+09   1.49936002E+09
   8.40000000E-03   1.32062321E+09   4.24680496E+09   4.24680496E+09   2.65670102E+09   1.52714077E+09   1.52714077E+09
   8.60000000E-03   1.33479661E+09   4.20475268E+09   4.20475268E+09   2.70937611E+09   1.55238573E+09   1.55238573E+09
   8.80000000E-03   1.34713610E+09   4.15354417E+09   4.15354417E+09   2.75605022E+09   1.57508695E+09   1.57508695E+09
   9.00000000E-03   1.35769491E+09   4.09402723E+09   4.09402723E+09   2.79669472E+09   1.59524954E+09   1.59524954E+09
   9.20000000E-03   1.36652971E+09   4.02704458E+09   4.02704458E+09   2.83132035E+09   1.61289075E+09   1.61289075E+09
   9.40000000E-03   1.37369980E+09   3.95342545E+09   3.95342545E+09   2.85997434E+09   1.62803901E+09   1.62803901E+09
   9.60000000E-03   1.37926650E+09   3.87397841E+09   3.87397841E+09   2.88273738E+09   1.64073296E+09   1.64073296E+09
   9.80000000E-03   1.38329256E+09   3.78948540E+09   3.78948540E+09   2.89972057E+09   1.65102048E+09   1.65102048E+09
   1.00000000E-02   1.38584162E+09   3.70069673E+09   3.70069673E+09   2.91106235E+09   1.65895772E+09   1.65895772E+09
   1.02000000E-02   1.38697775E+09   3.60832719E+09   3.60832719E+09   2.91692540E+09   1.66460815E+09   1.66460815E+09
   1.04000000E-02   1.38676505E+09   3.51305301E+09   3.51305301E+09   2.91749370E+09   1.66804167E+09   1.66804167E+09
   1.06000000E-02   1.38526730E+09   3.41550964E+09   3.41550964E+09   2.91296952E+09   1.66933369E+09   1.66933369E+09
   1.08000000E-02   1.38254768E+09   3.31629033E+09   3.31629033E+09   2.90357068E+09   1.66856432E+09   1.66856432E+09
   1.10000000E-02   1.37866848E+09   3.21594532E+09   3.21594532E+09   2.88952778E+09   1.66581752E+09   1.66581752E+09
   1.12000000E-02   1.37369090E+09   3.11498162E+09   3.11498162E+09   2.87108171E+09   1.66118036E+09   1.66118036E+09
   1.14000000E-02   1.36767489E+09   3.01386326E+09   3.01386326E+09   2.84848118E+09   1.65474230E+09   1.65474230E+09
   1.16000000E-02   1.36067896E+09   2.91301203E+09   2.91301203E+09   2.82198052E+09   1.64659451E+09   1.64659451E+09
   1.18000000E-02   1.35276012E+09   2.81280854E+09   2.81280854E+09   2.79183753E+09   1.63682928E+09   1.63682928E+09
   1.20000000E-02   1.34397376E+09   2.71359354E+09   2.71359354E+09   2.75831161E+09   1.62553939E+09   1.62553939E+09
   1.22000000E-02   1.33437358E+09   2.61566954E+09   2.61566954E+09   2.72166197E+09   1.61281766E+09   1.61281766E+09
   1.24000000E-02   1.32401155E+09   2.51930258E+09   2.51930258E+09   2.68214603E+09   1.59875642E+09   1.59875642E+09
   1.26000000E-02   1.31293790E+09   2.42472414E+09   2.42472414E+09   2.64001802E+09   1.58344707E+09   1.58344707E+09
   1.28000000E-02   1.30120106E+09   2.33213320E+09   2.33213320E+09   2.59552767E+09   1.56697977E+09   1.56697977E+09
   1.30000000E-02   1.28884772E+09   2.24169824E+09   2.24169824E+09   2.54891911E+09   1.54944301E+09   1.54944301E+09
   1.32000000E-02   1.27592277E+09   2.15355940E+09   2.15355940E+09   2.50042986E+09   1.53092338E+09   1.53092338E+09
   1.34000000E-02   1.26246937E+09   2.06783058E+09   2.06783058E+09   2.45029004E+09   1.51150526E+09   1.51150526E+09
   1.36000000E-02   1.24852895E+09   1.98460153E+09   1.98460153E+09   2.39872160E+09   1.49127066E+09   1.49127066E+09
   1.38000000E-02   1.23414127E+09   1.90393987E+09   1.90393987E+09   2.34593780E+09   1.47029894E+09   1.47029894E+09
   1.40000000E-02   1.21934439E+09   1.82589309E+09   1.82589309E+09   2.29214268E+09   1.44866675E+09   1.44866675E+09
   1.42000000E-02   1.20417479E+09   1.75049048E+09   1.75049048E+09   2.23753073E+09   1.42644784E+09   1.42644784E+09
   1.44000000E-02   1.18866736E+09   1.67774498E+09   1.67774498E+09   2.18228661E+09   1.40371301E+09   1.40371301E+09
   1.46000000E-02   1.17285545E+09   1.60765487E+09   1.60765487E+09   2.12658498E+09   1.38053001E+09   1.38053001E+09
   1.48000000E-02   1.15677093E+09   1.54020551E+09   1.54020551E+09   2.07059039E+09   1.35696350E+09   1.35696350E+09
   1.50000000E-02   1.14044424E+09   1.47537083E+09   1.47537083E+09   2.01445728E+09   1.33307503E+09   1.33307503E+09
   1.52000000E-02   1.12390440E+09   1.41311481E+09   1.41311481E+09   1.95833000E+09   1.30892302E+09   1.30892302E+09
   1.54000000E-02   1.10717911E+09   1.35339285E+09   1.35339285E+09   1.90234294E+09   1.28456280E+09   1.28456280E+09
   1.56000000E-02   1.09029474E+09   1.29615301E+09   1.29615301E+09   1.84662065E+09   1.26004662E+09   1.26004662E+09
   1.58000000E-02   1.07327641E+09   1.24133719E+09   1.24133719E+09   1.79127807E+09   1.23542368E+09   1.23542368E+09
   1.60000000E-02   1.05614804E+09   1.18888219E+09   1.18888219E+09   1.73642077E+09   1.21074019E+09   1.21074019E+09
   1.62000000E-02   1.03893236E+09   1.13872065E+09   1.13872065E+09   1.68214519E+09   1.18603946E+09   1.18603946E+09
   1.64000000E-02   1.02165099E+09   1.09078197E+09   1.09078197E+09   1.62853898E+09   1.16136192E+09   1.16136192E+09
   1.66000000E-02   1.00432443E+09   1.04499311E+09   1.04499311E+09   1.57568129E+09   1.13674525E+09   1.13674525E+09
   1.68000000E-02   9.86972170E+08   1.00127927E+09   1.00127927E+09   1.52364314E+09   1.11222443E+09   1.11222443E+09
   1.70000000E-02   9.69612662E+08   9.59564565E+08   9.59564565E+08   1.47248775E+09   1.08783185E+09   1.08783185E+09
   1.72000000E-02   9.52263397E+08   9.19772573E+08   9.19772573E+08   1.42227092E+09   1.06359740E+09   1.06359740E+09
   1.74000000E-02   9.34940925E+08   8.81826853E+08   8.81826853E+08   1.37304141E+09   1.03954856E+09   1.03954856E+09
   1.76000000E-02   9.17660892E+08   8.45651370E+08   8.45651370E+08   1.32484127E+09   1.01571051E+09   1.01571051E+09
   1.78000000E-02   9.00438077E+08   8.11170889E+08   8.11170889E+08   1.27770629E+09   9.92106239E+08   9.92106239E+08
   1.80000000E-02   8.83286419E+08   7.78311295E+08   7.78311295E+08   1.23166631E+09   9.68756610E+08   9.68756610E+08
   1.82000000E-02   8.66219051E+08   7.46999878E+08   7.46999878E+08   1.18674563E+09   9.45680502E+08   9.45680502E+08
   1.84000000E-02   8.49248330E+08   7.17165568E+08   7.17165568E+08   1.14296334E+09   9.22894894E+08   9.22894894E+08
   1.86000000E-02   8.32385865E+08   6.88739128E+08   6.88739128E+08   1.10033372E+09   9.00414961E+08   9.00414961E+08
   1.88000000E-02   8.15642544E+08   6.61653314E+08   6.61653314E+08   1.05886656E+09   8.78254180E+08   8.78254180E+08
   1.90000000E-02   7.99028563E+08   6.35843003E+08   6.35843003E+08   1.01856748E+09   8.56424424E+08   8.56424424E+08
   1.92000000E-02   7.82553450E+08   6.11245283E+08   6.11245283E+08   9.79438308E+08   8.34936052E+08   8.34936052E+08
   1.94000000E-02   7.66226093E+08   5.87799526E+08   5.87799526E+08   9.41477356E+08   8.13798006E+08   8.13798006E+08
   1.96000000E-02   7.50054762E+08   5.65447434E+08   5.65447434E+08   9.04679734E+08   7.93017896E+08   7.93017896E+08
   1.98000000E-02   7.34047131E+08   5.44133064E+08   5.44133064E+08   8.69037639E+08   7.72602089E+08   7.72602089E+08
   2.00000000E-02   7.18210307E+08   5.23802832E+08   5.23802832E+08   8.34540632E+08   7.52555789E+08   7.52555789E+08
   2.02000000E-02   7.02550845E+08   5.04405508E+08   5.04405508E+08   8.01175900E+08   7.32883118E+08   7.32883118E+08
   2.04000000E-02   6.87074774E+08   4.85892193E+08   4.85892193E+08   7.68928505E+08   7.13587193E+08   7.13587193E+08
   2.06000000E-02   6.71787618E+08   4.68216283E+08   4.68216283E+08   7.37781619E+08   6.94670197E+08   6.94670197E+08
   2.08000000E-02   6.56694415E+08   4.51333425E+08   4.51333425E+08   7.07716748E+08   6.76133453E+08   6.76133453E+08
   2.10000000E-02   6.41799734E+08   4.35201467E+08   4.35201467E+08   6.78713938E+08   6.57977485E+08   6.57977485E+08
   2.12000000E-02   6.27107700E+08   4.19780398E+08   4.19780398E+08   6.50751973E+08   6.40202088E+08   6.40202088E+08
   2.14000000E-02   6.12622009E+08   4.05032285E+08   4.05032285E+08   6.23808554E+08   6.22806381E+08   6.22806381E+08
   2.16000000E-02   5.98345946E+08   3.90921199E+08   3.90921199E+08   5.97860475E+08   6.05788870E+08   6.05788870E+08
   2.18000000E-02   5.84282405E+08   3.77413151E+08   3.77413151E+08   5.72883776E+08   5.89147499E+08   5.89147499E+08
   2.20000000E-02   5.70433904E+08   3.64476010E+08   3.64476010E+08   5.48853894E+08   5.72879701E+08   5.72879701E+08
   2.22000000E-02   5.56802601E+08   3.52079435E+08   3.52079435E+08   5.25745793E+08   5.56982446E+08   5.56982446E+08
   2.24000000E-02   5.43390313E+08   3.40194789E+08   3.40194789E+08   5.03534094E+08   5.41452287E+08   5.41452287E+08
   2.26000000E-02   5.30198531E+08   3.28795074E+08   3.28795074E+08   4.82193187E+08   5.26285400E+08   5.26285400E+08
   2.28000000E-02   5.17228433E+08   3.17854843E+08   3.17854843E+08   4.61697335E+08   5.11477626E+08   5.11477626E+08
   2.30000000E-02   5.04480901E+08   3.07350134E+08   3.07350134E+08   4.42020768E+08   4.97024507E+08   4.97024507E+08
   2.32000000E-02   4.91956538E+08   2.97258390E+08   2.97258390E+08   4.23137772E+08   4.82921320E+08   4.82921320E+08
   2.34000000E-02   4.79655674E+08   2.87558388E+08   2.87558388E+08   4.05022767E+08   4.69163110E+08   4.69163110E+08
   2.36000000E-02   4.67578390E+08   2.78230169E+08   2.78230169E+08   3.87650374E+08   4.55744720E+08   4.55744720E+08
   2.38000000E-02   4.55724523E+08   2.69254970E+08   2.69254970E+08   3.70995479E+08   4.42660818E+08   4.42660818E+08
   2.40000000E-02   4.44093684E+08   2.60615154E+08   2.60615154E+08   3.55033292E+08   4.29905924E+08   4.29905924E+08
   2.42000000E-02   4.32685267E+08   2.52294150E+08   2.52294150E+08   3.39739388E+08   4.17474432E+08   4.17474432E+08
   2.44000000E-02   4.21498464E+08   2.44276387E+08   2.44276387E+08   3.25089760E+08   4.05360635E+08   4.05360635E+08
   2.46000000E-02   4.10532275E+08   2.36547238E+08   2.36547238E+08   3.11060848E+08   3.93558741E+08   3.93558741E+08
   2.48000000E-02   3.99785520E+08   2.29092964E+08   2.29092964E+08   2.97629575E+08   3.82062898E+08   3.82062898E+08
   2.50000000E-02   3.89256849E+08   2.21900656E+08   2.21900656E+08   2.84773375E+08   3.70867203E+08   3.70867203E+08
   2.52000000E-02   3.78944755E+08   2.14958188E+08   2.14958188E+08   2.72470213E+08   3.59965726E+08   3.59965726E+08
   2.54000000E-02   3.68847580E+08   2.08254163E+08   2.08254163E+08   2.60698605E+08   3.49352517E+08   3.49352517E+08
   2.56000000E-02   3.58963531E+08   2.01777873E+08   2.01777873E+08   2.49437634E+08   3.39021626E+08   3.39021626E+08
   2.58000000E-02   3.49290683E+08   1.95519247E+08   1.95519247E+08   2.38666957E+08   3.28967109E+08   3.28967109E+08
   2.60000000E-02   3.39826993E+08   1.89468819E+08   1.89468819E+08   2.28366820E+08   3.19183042E+08   3.19183042E+08
   2.62000000E-02   3.30570307E+08   1.83617678E+08   1.83617678E+08   2.18518055E+08   3.09663530E+08   3.09663530E+08
   2.64000000E-02   3.21518369E+08   1.77957442E+08   1.77957442E+08   2.09102090E+08   3.00402716E+08   3.00402716E+08
   2.66000000E-02   3.12668829E+08   1.72480213E+08   1.72480213E+08   2.00100945E+08   2.91394788E+08   2.91394788E+08
   2.68000000E-02   3.04019248E+08   1.67178553E+08   1.67178553E+08   1.91497230E+08   2.82633989E+08   2.82633989E+08
   2.70000000E-02   2.95567113E+08   1.62045445E+08   1.62045445E+08   1.83274144E+08   2.74114618E+08   2.74114618E+08
   2.72000000E-02   2.87309837E+08   1.57074273E+08   1.57074273E+08   1.75415467E+08   2.65831040E+08   2.65831040E+08
   2.74000000E-02   2.79244768E+08   1.52258787E+08   1.52258787E+08   1.67905554E+08   2.57777691E+08   2.57777691E+08
   2.76000000E-02   2.71369197E+08   1.47593083E+08   1.47593083E+08   1.60729327E+08   2.49949079E+08   2.49949079E+08
   2.78000000E-02   2.63680365E+08   1.43071578E+08   1.43071578E+08   1.53872264E+08   2.42339791E+08   2.42339791E+08
   2.80000000E-02   2.56175466E+08   1.38688986E+08   1.38688986E+08   1.47320391E+08   2.34944492E+08   2.34944492E+08
   2.82000000E-02   2.48851653E+08   1.34440302E+08   1.34440302E+08   1.41060269E+08   2.27757935E+08   2.27757935E+08
   2.84000000E-02   2.41706049E+08   1.30320779E+08   1.30320779E+08   1.35078982E+08   2.20774955E+08   2.20774955E+08
   2.86000000E-02   2.34735745E+08   1.26325909E+08   1.26325909E+08   1.29364125E+08   2.13990477E+08   2.13990477E+08
   2.88000000E-02   2.27937809E+08   1.22451414E+08   1.22451414E+08   1.23903791E+08   2.07399516E+08   2.07399516E+08
   2.90000000E-02   2.21309290E+08   1.18693221E+08   1.18693221E+08   1.18686556E+08   2.00997175E+08   2.00997175E+08
   2.92000000E-02   2.14847224E+08   1.15047455E+08   1.15047455E+08   1.13701469E+08   1.94778651E+08   1.94778651E+08
   2.94000000E-02   2.08548635E+08   1.11510422E+08   1.11510422E+08   1.08938034E+08   1.88739232E+08   1.88739232E+08
   2.96000000E-02   2.02410541E+08   1.08078599E+08   1.08078599E+08   1.04386197E+08   1.82874299E+08   1.82874299E+08
   2.98000000E-02   1.96429957E+08   1.04748620E+08   1.04748620E+08   1.00036333E+08   1.77179324E+08   1.77179324E+08
   3.00000000E-02   1.90603902E+08   1.01517270E+08   1.01517270E+08   9.58792306E+07   1.71649875E+08   1.71649875E+08
   3.02000000E-02   1.84929397E+08   9.83814690E+07   9.83814690E+07   9.19060798E+07   1.66281609E+08   1.66281609E+08
   3.04000000E-02   1.79403472E+08   9.53382684E+07   9.53382684E+07   8.81084554E+07   1.61070278E+08   1.61070278E+08
   3.06000000E-02   1.74023167E+08   9.23848403E+07   9.23848403E+07   8.44783046E+07   1.56011723E+08   1.56011723E+08
   3.08000000E-02   1.68785536E+08   8.95184705E+07   8.95184705E+07   8.10079331E+07   1.51101877E+08   1.51101877E+08
   3.10000000E-02   1.63687651E+08   8.67365509E+07   8.67365509E+07   7.76899918E+07   1.46336764E+08   1.46336764E+08
   3.12000000E-02   1.58726600E+08   8.40365733E+07   8.40365733E+07   7.45174628E+07   1.41712496E+08   1.41712496E+08
   3.14000000E-02   1.53899494E+08   8.14161236E+07   8.14161236E+07   7.14836476E+07   1.37225272E+08   1.37225272E+08
   3.16000000E-02   1.49203467E+08   7.88728755E+07   7.88728755E+07   6.85821534E+07   1.32871381E+08   1.32871381E+08
   3.18000000E-02   1.44635677E+08   7.64045863E+07   7.64045863E+07   6.58068810E+07   1.28647196E+08   1.28647196E+08
   3.20000000E-02   1.40193310E+08   7.40090913E+07   7.40090913E+07   6.31520131E+07   1.24549176E+08   1.24549176E+08
   3.22000000E-02   1.35873581E+08   7.16843002E+07   7.16843002E+07   6.06120021E+07   1.20573862E+08   1.20573862E+08
   3.24000000E-02   1.31673735E+08   6.94281923E+07   6.94281923E+07   5.81815588E+07   1.16717878E+08   1.16717878E+08
   3.26000000E-02   1.27591048E+08   6.72388134E+07   6.72388134E+07   5.58556414E+07   1.12977930E+08   1.12977930E+08
   3.28000000E-02   1.23622830E+08   6.51142721E+07   6.51142721E+07   5.36294450E+07   1.09350802E+08   1.09350802E+08
