# TBinMid=0.65 ssec TBinWidth=0.1 ss EBinWidth=0.2MeV Fluence at Earth for this timebin in neutrinos per cm^2
# E(GeV)	NuE	NuMu	NuTau	aNuE	aNuMu	aNuTau
   1.38589050E-13   5.33006687E-08   2.78608226E-08   2.78608226E-08   1.73963511E-08   4.58129814E-08   4.58129814E-08
   2.00000000E-04   3.67643846E+07   2.20592539E+07   2.20592539E+07   1.23644148E+07   3.15817639E+07   3.15817639E+07
   4.00000000E-04   1.10055432E+08   7.43944844E+07   7.43944844E+07   3.87796216E+07   9.46504954E+07   9.46504954E+07
   6.00000000E-04   2.06556728E+08   1.54488545E+08   1.54488545E+08   7.67132003E+07   1.78023673E+08   1.78023673E+08
   8.00000000E-04   3.20183598E+08   2.61109553E+08   2.61109553E+08   1.25611445E+08   2.76736061E+08   2.76736061E+08
   1.00000000E-03   4.46891175E+08   3.92672968E+08   3.92672968E+08   1.85239637E+08   3.87546101E+08   3.87546101E+08
   1.20000000E-03   5.83657327E+08   5.47209455E+08   5.47209455E+08   2.55391194E+08   5.08053155E+08   5.08053155E+08
   1.40000000E-03   7.28087011E+08   7.22463490E+08   7.22463490E+08   3.35798381E+08   6.36355650E+08   6.36355650E+08
   1.60000000E-03   8.78215831E+08   9.15997883E+08   9.15997883E+08   4.26105193E+08   7.70883356E+08   7.70883356E+08
   1.80000000E-03   1.03239753E+09   1.12528300E+09   1.12528300E+09   5.25864371E+08   9.10303194E+08   9.10303194E+08
   2.00000000E-03   1.18923305E+09   1.34776837E+09   1.34776837E+09   6.34544696E+08   1.05346143E+09   1.05346143E+09
   2.20000000E-03   1.34752246E+09   1.58093838E+09   1.58093838E+09   7.51542613E+08   1.19934585E+09   1.19934585E+09
   2.40000000E-03   1.50623066E+09   1.82235479E+09   1.82235479E+09   8.76195376E+08   1.34705972E+09   1.34705972E+09
   2.60000000E-03   1.66446171E+09   2.06968814E+09   2.06968814E+09   1.00779428E+09   1.49580320E+09   1.49580320E+09
   2.80000000E-03   1.82143897E+09   2.32074047E+09   2.32074047E+09   1.14559731E+09   1.64485957E+09   1.64485957E+09
   3.00000000E-03   1.97648939E+09   2.57346073E+09   2.57346073E+09   1.28884074E+09   1.79358470E+09   1.79358470E+09
   3.20000000E-03   2.12903054E+09   2.82595453E+09   2.82595453E+09   1.43674967E+09   1.94139887E+09   1.94139887E+09
   3.40000000E-03   2.27855995E+09   3.07648929E+09   3.07648929E+09   1.58854733E+09   2.08778013E+09   2.08778013E+09
   3.60000000E-03   2.42464603E+09   3.32349572E+09   3.32349572E+09   1.74346322E+09   2.23225892E+09   2.23225892E+09
   3.80000000E-03   2.56692029E+09   3.56556646E+09   3.56556646E+09   1.90074011E+09   2.37441350E+09   2.37441350E+09
   4.00000000E-03   2.70507062E+09   3.80145250E+09   3.80145250E+09   2.05964003E+09   2.51386606E+09   2.51386606E+09
   4.20000000E-03   2.83883531E+09   4.03005791E+09   4.03005791E+09   2.21944924E+09   2.65027936E+09   2.65027936E+09
   4.40000000E-03   2.96799791E+09   4.25043331E+09   4.25043331E+09   2.37948233E+09   2.78335375E+09   2.78335375E+09
   4.60000000E-03   3.09238254E+09   4.46176841E+09   4.46176841E+09   2.53908555E+09   2.91282447E+09   2.91282447E+09
   4.80000000E-03   3.21184974E+09   4.66338396E+09   4.66338396E+09   2.69763938E+09   3.03845921E+09   3.03845921E+09
   5.00000000E-03   3.32629277E+09   4.85472328E+09   4.85472328E+09   2.85456045E+09   3.16005592E+09   3.16005592E+09
   5.20000000E-03   3.43563422E+09   5.03534363E+09   5.03534363E+09   3.00930297E+09   3.27744074E+09   3.27744074E+09
   5.40000000E-03   3.53982299E+09   5.20490755E+09   5.20490755E+09   3.16135953E+09   3.39046605E+09   3.39046605E+09
   5.60000000E-03   3.63883153E+09   5.36317421E+09   5.36317421E+09   3.31026159E+09   3.49900874E+09   3.49900874E+09
   5.80000000E-03   3.73265337E+09   5.50999101E+09   5.50999101E+09   3.45557951E+09   3.60296847E+09   3.60296847E+09
   6.00000000E-03   3.82130079E+09   5.64528542E+09   5.64528542E+09   3.59692227E+09   3.70226610E+09   3.70226610E+09
   6.20000000E-03   3.90480280E+09   5.76905709E+09   5.76905709E+09   3.73393692E+09   3.79684220E+09   3.79684220E+09
   6.40000000E-03   3.98320324E+09   5.88137036E+09   5.88137036E+09   3.86630779E+09   3.88665559E+09   3.88665559E+09
   6.60000000E-03   4.05655906E+09   5.98234709E+09   5.98234709E+09   3.99375547E+09   3.97168204E+09   3.97168204E+09
   6.80000000E-03   4.12493873E+09   6.07215997E+09   6.07215997E+09   4.11603569E+09   4.05191294E+09   4.05191294E+09
   7.00000000E-03   4.18842085E+09   6.15102615E+09   6.15102615E+09   4.23293802E+09   4.12735409E+09   4.12735409E+09
   7.20000000E-03   4.24709284E+09   6.21920137E+09   6.21920137E+09   4.34428444E+09   4.19802458E+09   4.19802458E+09
   7.40000000E-03   4.30104970E+09   6.27697441E+09   6.27697441E+09   4.44992792E+09   4.26395562E+09   4.26395562E+09
   7.60000000E-03   4.35039300E+09   6.32466201E+09   6.32466201E+09   4.54975082E+09   4.32518957E+09   4.32518957E+09
   7.80000000E-03   4.39522983E+09   6.36260420E+09   6.36260420E+09   4.64366338E+09   4.38177890E+09   4.38177890E+09
   8.00000000E-03   4.43567196E+09   6.39115993E+09   6.39115993E+09   4.73160208E+09   4.43378529E+09   4.43378529E+09
   8.20000000E-03   4.47183495E+09   6.41070314E+09   6.41070314E+09   4.81352805E+09   4.48127871E+09   4.48127871E+09
   8.40000000E-03   4.50383750E+09   6.42161916E+09   6.42161916E+09   4.88942544E+09   4.52433659E+09   4.52433659E+09
   8.60000000E-03   4.53180068E+09   6.42430145E+09   6.42430145E+09   4.95929989E+09   4.56304306E+09   4.56304306E+09
   8.80000000E-03   4.55584742E+09   6.41914866E+09   6.41914866E+09   5.02317691E+09   4.59748813E+09   4.59748813E+09
   9.00000000E-03   4.57610186E+09   6.40656195E+09   6.40656195E+09   5.08110037E+09   4.62776707E+09   4.62776707E+09
   9.20000000E-03   4.59268894E+09   6.38694266E+09   6.38694266E+09   5.13313105E+09   4.65397970E+09   4.65397970E+09
   9.40000000E-03   4.60573389E+09   6.36069019E+09   6.36069019E+09   5.17934510E+09   4.67622976E+09   4.67622976E+09
   9.60000000E-03   4.61536187E+09   6.32820015E+09   6.32820015E+09   5.21983273E+09   4.69462437E+09   4.69462437E+09
   9.80000000E-03   4.62169758E+09   6.28986270E+09   6.28986270E+09   5.25469683E+09   4.70927344E+09   4.70927344E+09
   1.00000000E-02   4.62486495E+09   6.24606121E+09   6.24606121E+09   5.28405167E+09   4.72028920E+09   4.72028920E+09
   1.02000000E-02   4.62498687E+09   6.19717094E+09   6.19717094E+09   5.30802166E+09   4.72778568E+09   4.72778568E+09
   1.04000000E-02   4.62218489E+09   6.14355807E+09   6.14355807E+09   5.32674022E+09   4.73187833E+09   4.73187833E+09
   1.06000000E-02   4.61657906E+09   6.08557876E+09   6.08557876E+09   5.34034859E+09   4.73268353E+09   4.73268353E+09
   1.08000000E-02   4.60828767E+09   6.02357850E+09   6.02357850E+09   5.34899483E+09   4.73031829E+09   4.73031829E+09
   1.10000000E-02   4.59742711E+09   5.95789144E+09   5.95789144E+09   5.35283281E+09   4.72489984E+09   4.72489984E+09
   1.12000000E-02   4.58411172E+09   5.88883996E+09   5.88883996E+09   5.35202122E+09   4.71654535E+09   4.71654535E+09
   1.14000000E-02   4.56845365E+09   5.81673432E+09   5.81673432E+09   5.34672276E+09   4.70537159E+09   4.70537159E+09
   1.16000000E-02   4.55056277E+09   5.74187239E+09   5.74187239E+09   5.33710324E+09   4.69149469E+09   4.69149469E+09
   1.18000000E-02   4.53054655E+09   5.66453951E+09   5.66453951E+09   5.32333087E+09   4.67502987E+09   4.67502987E+09
   1.20000000E-02   4.50851002E+09   5.58500837E+09   5.58500837E+09   5.30557550E+09   4.65609125E+09   4.65609125E+09
   1.22000000E-02   4.48455565E+09   5.50353907E+09   5.50353907E+09   5.28400796E+09   4.63479159E+09   4.63479159E+09
   1.24000000E-02   4.45878337E+09   5.42037909E+09   5.42037909E+09   5.25879945E+09   4.61124213E+09   4.61124213E+09
   1.26000000E-02   4.43129049E+09   5.33576348E+09   5.33576348E+09   5.23012099E+09   4.58555244E+09   4.58555244E+09
   1.28000000E-02   4.40217169E+09   5.24991498E+09   5.24991498E+09   5.19814285E+09   4.55783025E+09   4.55783025E+09
   1.30000000E-02   4.37151899E+09   5.16304422E+09   5.16304422E+09   5.16303412E+09   4.52818132E+09   4.52818132E+09
   1.32000000E-02   4.33942176E+09   5.07535000E+09   5.07535000E+09   5.12496226E+09   4.49670934E+09   4.49670934E+09
   1.34000000E-02   4.30596671E+09   4.98701952E+09   4.98701952E+09   5.08409269E+09   4.46351580E+09   4.46351580E+09
   1.36000000E-02   4.27123789E+09   4.89822871E+09   4.89822871E+09   5.04058846E+09   4.42869992E+09   4.42869992E+09
   1.38000000E-02   4.23531673E+09   4.80914254E+09   4.80914254E+09   4.99460992E+09   4.39235858E+09   4.39235858E+09
   1.40000000E-02   4.19828203E+09   4.71991534E+09   4.71991534E+09   4.94631443E+09   4.35458625E+09   4.35458625E+09
   1.42000000E-02   4.16021001E+09   4.63069119E+09   4.63069119E+09   4.89585613E+09   4.31547492E+09   4.31547492E+09
   1.44000000E-02   4.12117432E+09   4.54160426E+09   4.54160426E+09   4.84338569E+09   4.27511410E+09   4.27511410E+09
   1.46000000E-02   4.08124609E+09   4.45277917E+09   4.45277917E+09   4.78905014E+09   4.23359075E+09   4.23359075E+09
   1.48000000E-02   4.04049393E+09   4.36433140E+09   4.36433140E+09   4.73299271E+09   4.19098927E+09   4.19098927E+09
   1.50000000E-02   3.99898403E+09   4.27636762E+09   4.27636762E+09   4.67535268E+09   4.14739150E+09   4.14739150E+09
   1.52000000E-02   3.95678015E+09   4.18898613E+09   4.18898613E+09   4.61626524E+09   4.10287668E+09   4.10287668E+09
   1.54000000E-02   3.91394370E+09   4.10227717E+09   4.10227717E+09   4.55586147E+09   4.05752150E+09   4.05752150E+09
   1.56000000E-02   3.87053375E+09   4.01632334E+09   4.01632334E+09   4.49426819E+09   4.01140004E+09   4.01140004E+09
   1.58000000E-02   3.82660710E+09   3.93119996E+09   3.93119996E+09   4.43160794E+09   3.96458385E+09   3.96458385E+09
   1.60000000E-02   3.78221835E+09   3.84697539E+09   3.84697539E+09   4.36799896E+09   3.91714194E+09   3.91714194E+09
   1.62000000E-02   3.73741991E+09   3.76371147E+09   3.76371147E+09   4.30355513E+09   3.86914076E+09   3.86914076E+09
   1.64000000E-02   3.69226206E+09   3.68146378E+09   3.68146378E+09   4.23838601E+09   3.82064432E+09   3.82064432E+09
   1.66000000E-02   3.64679302E+09   3.60028204E+09   3.60028204E+09   4.17259681E+09   3.77171413E+09   3.77171413E+09
   1.68000000E-02   3.60105901E+09   3.52021041E+09   3.52021041E+09   4.10628844E+09   3.72240929E+09   3.72240929E+09
   1.70000000E-02   3.55510425E+09   3.44128781E+09   3.44128781E+09   4.03955752E+09   3.67278651E+09   3.67278651E+09
   1.72000000E-02   3.50897108E+09   3.36354824E+09   3.36354824E+09   3.97249644E+09   3.62290016E+09   3.62290016E+09
   1.74000000E-02   3.46269995E+09   3.28702108E+09   3.28702108E+09   3.90519340E+09   3.57280228E+09   3.57280228E+09
   1.76000000E-02   3.41632953E+09   3.21173136E+09   3.21173136E+09   3.83773248E+09   3.52254267E+09   3.52254267E+09
   1.78000000E-02   3.36989671E+09   3.13770006E+09   3.13770006E+09   3.77019370E+09   3.47216893E+09   3.47216893E+09
   1.80000000E-02   3.32343668E+09   3.06494437E+09   3.06494437E+09   3.70265309E+09   3.42172647E+09   3.42172647E+09
   1.82000000E-02   3.27698299E+09   2.99347792E+09   2.99347792E+09   3.63518278E+09   3.37125859E+09   3.37125859E+09
   1.84000000E-02   3.23056757E+09   2.92331107E+09   2.92331107E+09   3.56785109E+09   3.32080655E+09   3.32080655E+09
   1.86000000E-02   3.18422080E+09   2.85445110E+09   2.85445110E+09   3.50072259E+09   3.27040958E+09   3.27040958E+09
   1.88000000E-02   3.13797156E+09   2.78690246E+09   2.78690246E+09   3.43385822E+09   3.22010497E+09   3.22010497E+09
   1.90000000E-02   3.09184727E+09   2.72066698E+09   2.72066698E+09   3.36731538E+09   3.16992808E+09   3.16992808E+09
   1.92000000E-02   3.04587393E+09   2.65574405E+09   2.65574405E+09   3.30114802E+09   3.11991246E+09   3.11991246E+09
   1.94000000E-02   3.00007619E+09   2.59213083E+09   2.59213083E+09   3.23540675E+09   3.07008981E+09   3.07008981E+09
   1.96000000E-02   2.95447738E+09   2.52982243E+09   2.52982243E+09   3.17013893E+09   3.02049015E+09   3.02049015E+09
   1.98000000E-02   2.90909955E+09   2.46881209E+09   2.46881209E+09   3.10538878E+09   2.97114176E+09   2.97114176E+09
   2.00000000E-02   2.86396353E+09   2.40909132E+09   2.40909132E+09   3.04119750E+09   2.92207131E+09   2.92207131E+09
   2.02000000E-02   2.81908896E+09   2.35065007E+09   2.35065007E+09   2.97760333E+09   2.87330389E+09   2.87330389E+09
   2.04000000E-02   2.77449434E+09   2.29347688E+09   2.29347688E+09   2.91464169E+09   2.82486304E+09   2.82486304E+09
   2.06000000E-02   2.73019705E+09   2.23755900E+09   2.23755900E+09   2.85234527E+09   2.77677085E+09   2.77677085E+09
   2.08000000E-02   2.68621343E+09   2.18288254E+09   2.18288254E+09   2.79074416E+09   2.72904797E+09   2.72904797E+09
   2.10000000E-02   2.64255878E+09   2.12943256E+09   2.12943256E+09   2.72986589E+09   2.68171367E+09   2.68171367E+09
   2.12000000E-02   2.59924742E+09   2.07719322E+09   2.07719322E+09   2.66973560E+09   2.63478591E+09   2.63478591E+09
   2.14000000E-02   2.55629273E+09   2.02614785E+09   2.02614785E+09   2.61037609E+09   2.58828136E+09   2.58828136E+09
   2.16000000E-02   2.51370716E+09   1.97627907E+09   1.97627907E+09   2.55180793E+09   2.54221547E+09   2.54221547E+09
   2.18000000E-02   2.47150229E+09   1.92756891E+09   1.92756891E+09   2.49404959E+09   2.49660250E+09   2.49660250E+09
   2.20000000E-02   2.42968886E+09   1.87999882E+09   1.87999882E+09   2.43711749E+09   2.45145560E+09   2.45145560E+09
   2.22000000E-02   2.38827679E+09   1.83354983E+09   1.83354983E+09   2.38102610E+09   2.40678680E+09   2.40678680E+09
   2.24000000E-02   2.34727523E+09   1.78820257E+09   1.78820257E+09   2.32578805E+09   2.36260712E+09   2.36260712E+09
   2.26000000E-02   2.30669258E+09   1.74393738E+09   1.74393738E+09   2.27141423E+09   2.31892655E+09   2.31892655E+09
   2.28000000E-02   2.26653654E+09   1.70073434E+09   1.70073434E+09   2.21791381E+09   2.27575414E+09   2.27575414E+09
   2.30000000E-02   2.22681408E+09   1.65857336E+09   1.65857336E+09   2.16529442E+09   2.23309802E+09   2.23309802E+09
   2.32000000E-02   2.18753157E+09   1.61743420E+09   1.61743420E+09   2.11356214E+09   2.19096543E+09   2.19096543E+09
   2.34000000E-02   2.14869470E+09   1.57729656E+09   1.57729656E+09   2.06272164E+09   2.14936279E+09   2.14936279E+09
   2.36000000E-02   2.11030858E+09   1.53814008E+09   1.53814008E+09   2.01277626E+09   2.10829572E+09   2.10829572E+09
   2.38000000E-02   2.07237773E+09   1.49994445E+09   1.49994445E+09   1.96372802E+09   2.06776907E+09   2.06776907E+09
   2.40000000E-02   2.03490615E+09   1.46268937E+09   1.46268937E+09   1.91557776E+09   2.02778696E+09   2.02778696E+09
   2.42000000E-02   1.99789726E+09   1.42635464E+09   1.42635464E+09   1.86832520E+09   1.98835282E+09   1.98835282E+09
   2.44000000E-02   1.96135403E+09   1.39092018E+09   1.39092018E+09   1.82196897E+09   1.94946943E+09   1.94946943E+09
   2.46000000E-02   1.92527891E+09   1.35636604E+09   1.35636604E+09   1.77650671E+09   1.91113894E+09   1.91113894E+09
   2.48000000E-02   1.88967390E+09   1.32267246E+09   1.32267246E+09   1.73193513E+09   1.87336290E+09   1.87336290E+09
   2.50000000E-02   1.85454057E+09   1.28981986E+09   1.28981986E+09   1.68825004E+09   1.83614231E+09   1.83614231E+09
   2.52000000E-02   1.81988007E+09   1.25778889E+09   1.25778889E+09   1.64544646E+09   1.79947761E+09   1.79947761E+09
   2.54000000E-02   1.78569316E+09   1.22656042E+09   1.22656042E+09   1.60351864E+09   1.76336877E+09   1.76336877E+09
   2.56000000E-02   1.75198020E+09   1.19611559E+09   1.19611559E+09   1.56246011E+09   1.72781525E+09   1.72781525E+09
   2.58000000E-02   1.71874121E+09   1.16643579E+09   1.16643579E+09   1.52226374E+09   1.69281608E+09   1.69281608E+09
   2.60000000E-02   1.68597587E+09   1.13750271E+09   1.13750271E+09   1.48292183E+09   1.65836984E+09   1.65836984E+09
   2.62000000E-02   1.65368352E+09   1.10929832E+09   1.10929832E+09   1.44442607E+09   1.62447474E+09   1.62447474E+09
   2.64000000E-02   1.62186320E+09   1.08180488E+09   1.08180488E+09   1.40676768E+09   1.59112859E+09   1.59112859E+09
   2.66000000E-02   1.59051368E+09   1.05500497E+09   1.05500497E+09   1.36993739E+09   1.55832885E+09   1.55832885E+09
   2.68000000E-02   1.55963341E+09   1.02888150E+09   1.02888150E+09   1.33392549E+09   1.52607265E+09   1.52607265E+09
   2.70000000E-02   1.52922062E+09   1.00341768E+09   1.00341768E+09   1.29872189E+09   1.49435680E+09   1.49435680E+09
   2.72000000E-02   1.49927328E+09   9.78597057E+08   9.78597057E+08   1.26431616E+09   1.46317782E+09   1.46317782E+09
   2.74000000E-02   1.46978911E+09   9.54403495E+08   9.54403495E+08   1.23069753E+09   1.43253196E+09   1.43253196E+09
   2.76000000E-02   1.44076565E+09   9.30821199E+08   9.30821199E+08   1.19785496E+09   1.40241523E+09   1.40241523E+09
   2.78000000E-02   1.41220019E+09   9.07834702E+08   9.07834702E+08   1.16577717E+09   1.37282338E+09   1.37282338E+09
   2.80000000E-02   1.38408985E+09   8.85428871E+08   8.85428871E+08   1.13445264E+09   1.34375195E+09   1.34375195E+09
   2.82000000E-02   1.35643157E+09   8.63588903E+08   8.63588903E+08   1.10386967E+09   1.31519628E+09   1.31519628E+09
   2.84000000E-02   1.32922212E+09   8.42300327E+08   8.42300327E+08   1.07401640E+09   1.28715152E+09   1.28715152E+09
   2.86000000E-02   1.30245809E+09   8.21549001E+08   8.21549001E+08   1.04488081E+09   1.25961265E+09   1.25961265E+09
   2.88000000E-02   1.27613595E+09   8.01321109E+08   8.01321109E+08   1.01645079E+09   1.23257448E+09   1.23257448E+09
   2.90000000E-02   1.25025200E+09   7.81603162E+08   7.81603162E+08   9.88714144E+08   1.20603171E+09   1.20603171E+09
   2.92000000E-02   1.22480244E+09   7.62381988E+08   7.62381988E+08   9.61658588E+08   1.17997886E+09   1.17997886E+09
   2.94000000E-02   1.19978334E+09   7.43644736E+08   7.43644736E+08   9.35271801E+08   1.15441037E+09   1.15441037E+09
   2.96000000E-02   1.17519064E+09   7.25378867E+08   7.25378867E+08   9.09541433E+08   1.12932056E+09   1.12932056E+09
   2.98000000E-02   1.15102021E+09   7.07572151E+08   7.07572151E+08   8.84455122E+08   1.10470365E+09   1.10470365E+09
   3.00000000E-02   1.12726781E+09   6.90212663E+08   6.90212663E+08   8.60000512E+08   1.08055378E+09   1.08055378E+09
   3.02000000E-02   1.10392910E+09   6.73288778E+08   6.73288778E+08   8.36165272E+08   1.05686500E+09   1.05686500E+09
   3.04000000E-02   1.08099968E+09   6.56789166E+08   6.56789166E+08   8.12937105E+08   1.03363133E+09   1.03363133E+09
   3.06000000E-02   1.05847508E+09   6.40702787E+08   6.40702787E+08   7.90303765E+08   1.01084669E+09   1.01084669E+09
   3.08000000E-02   1.03635076E+09   6.25018883E+08   6.25018883E+08   7.68253071E+08   9.88504992E+08   9.88504992E+08
   3.10000000E-02   1.01462211E+09   6.09726979E+08   6.09726979E+08   7.46772916E+08   9.66600083E+08   9.66600083E+08
   3.12000000E-02   9.93284485E+08   5.94816870E+08   5.94816870E+08   7.25851279E+08   9.45125789E+08   9.45125789E+08
   3.14000000E-02   9.72333191E+08   5.80278620E+08   5.80278620E+08   7.05476236E+08   9.24075911E+08   9.24075911E+08
   3.16000000E-02   9.51763490E+08   5.66102555E+08   5.66102555E+08   6.85635968E+08   9.03444232E+08   9.03444232E+08
   3.18000000E-02   9.31570610E+08   5.52279258E+08   5.52279258E+08   6.66318772E+08   8.83224526E+08   8.83224526E+08
   3.20000000E-02   9.11749753E+08   5.38799561E+08   5.38799561E+08   6.47513065E+08   8.63410562E+08   8.63410562E+08
   3.22000000E-02   8.92296094E+08   5.25654542E+08   5.25654542E+08   6.29207393E+08   8.43996114E+08   8.43996114E+08
   3.24000000E-02   8.73204789E+08   5.12835519E+08   5.12835519E+08   6.11390440E+08   8.24974959E+08   8.24974959E+08
   3.26000000E-02   8.54470981E+08   5.00334041E+08   5.00334041E+08   5.94051030E+08   8.06340890E+08   8.06340890E+08
   3.28000000E-02   8.36089801E+08   4.88141888E+08   4.88141888E+08   5.77178134E+08   7.88087716E+08   7.88087716E+08
