# TBinMid=0.25 ssec TBinWidth=0.1 ss EBinWidth=0.2MeV Fluence at Earth for this timebin in neutrinos per cm^2
# E(GeV)	NuE	NuMu	NuTau	aNuE	aNuMu	aNuTau
   1.38589050E-13   2.94785257E-12   1.54087369E-12   1.54087369E-12   9.62124482E-13   2.53373772E-12   2.53373772E-12
   2.00000000E-04   1.49919760E+07   1.00002903E+07   1.00002903E+07   4.95082162E+06   1.28205970E+07   1.28205970E+07
   4.00000000E-04   6.05470387E+07   4.74337953E+07   4.74337953E+07   2.06919009E+07   5.16843717E+07   5.16843717E+07
   6.00000000E-04   1.35162765E+08   1.20010718E+08   1.20010718E+08   4.84729474E+07   1.15398261E+08   1.15398261E+08
   8.00000000E-04   2.36635055E+08   2.32683956E+08   2.32683956E+08   8.98646029E+07   2.02382073E+08   2.02382073E+08
   1.00000000E-03   3.62576505E+08   3.88334008E+08   3.88334008E+08   1.46619100E+08   3.11026648E+08   3.11026648E+08
   1.20000000E-03   5.10563564E+08   5.88175119E+08   5.88175119E+08   2.20509044E+08   4.39759311E+08   4.39759311E+08
   1.40000000E-03   6.78204043E+08   8.32073761E+08   8.32073761E+08   3.13202930E+08   5.87057244E+08   5.87057244E+08
   1.60000000E-03   8.63173849E+08   1.11881443E+09   1.11881443E+09   4.26175580E+08   7.51446277E+08   7.51446277E+08
   1.80000000E-03   1.06323863E+09   1.44632578E+09   1.44632578E+09   5.60647407E+08   9.31495775E+08   9.31495775E+08
   2.00000000E-03   1.27626689E+09   1.81187408E+09   1.81187408E+09   7.17546734E+08   1.12581327E+09   1.12581327E+09
   2.20000000E-03   1.50023773E+09   2.21222867E+09   2.21222867E+09   8.97490268E+08   1.33304008E+09   1.33304008E+09
   2.40000000E-03   1.73324513E+09   2.64380313E+09   2.64380313E+09   1.10077771E+09   1.55184836E+09   1.55184836E+09
   2.60000000E-03   1.97349974E+09   3.10277499E+09   3.10277499E+09   1.32739717E+09   1.78093935E+09   1.78093935E+09
   2.80000000E-03   2.21932885E+09   3.58518673E+09   3.58518673E+09   1.57703875E+09   2.01904300E+09   2.01904300E+09
   3.00000000E-03   2.46917512E+09   4.08703030E+09   4.08703030E+09   1.84911404E+09   2.26491831E+09   2.26491831E+09
   3.20000000E-03   2.72159433E+09   4.60431715E+09   4.60431715E+09   2.14277978E+09   2.51735460E+09   2.51735460E+09
   3.40000000E-03   2.97525241E+09   5.13313551E+09   5.13313551E+09   2.45696420E+09   2.77517317E+09   2.77517317E+09
   3.60000000E-03   3.22892189E+09   5.66969680E+09   5.66969680E+09   2.79039494E+09   3.03722935E+09   3.03722935E+09
   3.80000000E-03   3.48147804E+09   6.21037218E+09   6.21037218E+09   3.14162760E+09   3.30241472E+09   3.30241472E+09
   4.00000000E-03   3.73189469E+09   6.75172097E+09   6.75172097E+09   3.50907411E+09   3.56965937E+09   3.56965937E+09
   4.20000000E-03   3.97923983E+09   7.29051172E+09   7.29051172E+09   3.89103053E+09   3.83793416E+09   3.83793416E+09
   4.40000000E-03   4.22267117E+09   7.82373720E+09   7.82373720E+09   4.28570359E+09   4.10625281E+09   4.10625281E+09
   4.60000000E-03   4.46143161E+09   8.34862411E+09   8.34862411E+09   4.69123596E+09   4.37367380E+09   4.37367380E+09
   4.80000000E-03   4.69484467E+09   8.86263826E+09   8.86263826E+09   5.10572971E+09   4.63930210E+09   4.63930210E+09
   5.00000000E-03   4.92231001E+09   9.36348606E+09   9.36348606E+09   5.52726810E+09   4.90229053E+09   4.90229053E+09
   5.20000000E-03   5.14329898E+09   9.84911288E+09   9.84911288E+09   5.95393530E+09   5.16184094E+09   5.16184094E+09
   5.40000000E-03   5.35735025E+09   1.03176988E+10   1.03176988E+10   6.38383436E+09   5.41720505E+09   5.41720505E+09
   5.60000000E-03   5.56406559E+09   1.07676521E+10   1.07676521E+10   6.81510305E+09   5.66768499E+09   5.66768499E+09
   5.80000000E-03   5.76310568E+09   1.11976016E+10   1.11976016E+10   7.24592794E+09   5.91263358E+09   5.91263358E+09
   6.00000000E-03   5.95418619E+09   1.16063870E+10   1.16063870E+10   7.67455654E+09   6.15145433E+09   6.15145433E+09
   6.20000000E-03   6.13707388E+09   1.19930486E+10   1.19930486E+10   8.09930773E+09   6.38360113E+09   6.38360113E+09
   6.40000000E-03   6.31158293E+09   1.23568164E+10   1.23568164E+10   8.51858044E+09   6.60857777E+09   6.60857777E+09
   6.60000000E-03   6.47757139E+09   1.26970985E+10   1.26970985E+10   8.93086082E+09   6.82593717E+09   6.82593717E+09
   6.80000000E-03   6.63493776E+09   1.30134691E+10   1.30134691E+10   9.33472790E+09   7.03528042E+09   7.03528042E+09
   7.00000000E-03   6.78361783E+09   1.33056568E+10   1.33056568E+10   9.72885787E+09   7.23625566E+09   7.23625566E+09
   7.20000000E-03   6.92358154E+09   1.35735325E+10   1.35735325E+10   1.01120272E+10   7.42855674E+09   7.42855674E+09
   7.40000000E-03   7.05483011E+09   1.38170980E+10   1.38170980E+10   1.04831145E+10   7.61192177E+09   7.61192177E+09
   7.60000000E-03   7.17739329E+09   1.40364737E+10   1.40364737E+10   1.08411014E+10   7.78613155E+09   7.78613155E+09
   7.80000000E-03   7.29132671E+09   1.42318885E+10   1.42318885E+10   1.11850726E+10   7.95100786E+09   7.95100786E+09
   8.00000000E-03   7.39670945E+09   1.44036679E+10   1.44036679E+10   1.15142150E+10   8.10641173E+09   8.10641173E+09
   8.20000000E-03   7.49364174E+09   1.45522243E+10   1.45522243E+10   1.18278163E+10   8.25224154E+09   8.25224154E+09
   8.40000000E-03   7.58224275E+09   1.46780468E+10   1.46780468E+10   1.21252623E+10   8.38843116E+09   8.38843116E+09
   8.60000000E-03   7.66264857E+09   1.47816922E+10   1.47816922E+10   1.24060349E+10   8.51494803E+09   8.51494803E+09
   8.80000000E-03   7.73501031E+09   1.48637755E+10   1.48637755E+10   1.26697083E+10   8.63179116E+09   8.63179116E+09
   9.00000000E-03   7.79949229E+09   1.49249618E+10   1.49249618E+10   1.29159460E+10   8.73898922E+09   8.73898922E+09
   9.20000000E-03   7.85627039E+09   1.49659587E+10   1.49659587E+10   1.31444964E+10   8.83659857E+09   8.83659857E+09
   9.40000000E-03   7.90553051E+09   1.49875088E+10   1.49875088E+10   1.33551891E+10   8.92470131E+09   8.92470131E+09
   9.60000000E-03   7.94746709E+09   1.49903828E+10   1.49903828E+10   1.35479303E+10   9.00340334E+09   9.00340334E+09
   9.80000000E-03   7.98228183E+09   1.49753734E+10   1.49753734E+10   1.37226985E+10   9.07283254E+09   9.07283254E+09
   1.00000000E-02   8.01018239E+09   1.49432895E+10   1.49432895E+10   1.38795402E+10   9.13313687E+09   9.13313687E+09
   1.02000000E-02   8.03138130E+09   1.48949509E+10   1.48949509E+10   1.40185648E+10   9.18448258E+09   9.18448258E+09
   1.04000000E-02   8.04609487E+09   1.48311833E+10   1.48311833E+10   1.41399406E+10   9.22705250E+09   9.22705250E+09
   1.06000000E-02   8.05454223E+09   1.47528144E+10   1.47528144E+10   1.42438897E+10   9.26104432E+09   9.26104432E+09
   1.08000000E-02   8.05694443E+09   1.46606692E+10   1.46606692E+10   1.43306840E+10   9.28666900E+09   9.28666900E+09
   1.10000000E-02   8.05352366E+09   1.45555671E+10   1.45555671E+10   1.44006405E+10   9.30414918E+09   9.30414918E+09
   1.12000000E-02   8.04450245E+09   1.44383183E+10   1.44383183E+10   1.44541169E+10   9.31371768E+09   9.31371768E+09
   1.14000000E-02   8.03010303E+09   1.43097214E+10   1.43097214E+10   1.44915080E+10   9.31561613E+09   9.31561613E+09
   1.16000000E-02   8.01054670E+09   1.41705604E+10   1.41705604E+10   1.45132407E+10   9.31009357E+09   9.31009357E+09
   1.18000000E-02   7.98605326E+09   1.40216028E+10   1.40216028E+10   1.45197710E+10   9.29740518E+09   9.29740518E+09
   1.20000000E-02   7.95684056E+09   1.38635978E+10   1.38635978E+10   1.45115797E+10   9.27781106E+09   9.27781106E+09
   1.22000000E-02   7.92312396E+09   1.36972745E+10   1.36972745E+10   1.44891692E+10   9.25157514E+09   9.25157514E+09
   1.24000000E-02   7.88511600E+09   1.35233407E+10   1.35233407E+10   1.44530597E+10   9.21896403E+09   9.21896403E+09
   1.26000000E-02   7.84302602E+09   1.33424817E+10   1.33424817E+10   1.44037864E+10   9.18024607E+09   9.18024607E+09
   1.28000000E-02   7.79705982E+09   1.31553594E+10   1.31553594E+10   1.43418962E+10   9.13569041E+09   9.13569041E+09
   1.30000000E-02   7.74741942E+09   1.29626117E+10   1.29626117E+10   1.42679450E+10   9.08556609E+09   9.08556609E+09
   1.32000000E-02   7.69430279E+09   1.27648518E+10   1.27648518E+10   1.41824947E+10   9.03014130E+09   9.03014130E+09
   1.34000000E-02   7.63790362E+09   1.25626679E+10   1.25626679E+10   1.40861113E+10   8.96968258E+09   8.96968258E+09
   1.36000000E-02   7.57841121E+09   1.23566231E+10   1.23566231E+10   1.39793621E+10   8.90445419E+09   8.90445419E+09
   1.38000000E-02   7.51601024E+09   1.21472552E+10   1.21472552E+10   1.38628138E+10   8.83471746E+09   8.83471746E+09
   1.40000000E-02   7.45088071E+09   1.19350767E+10   1.19350767E+10   1.37370302E+10   8.76073027E+09   8.76073027E+09
   1.42000000E-02   7.38319779E+09   1.17205751E+10   1.17205751E+10   1.36025708E+10   8.68274647E+09   8.68274647E+09
   1.44000000E-02   7.31313177E+09   1.15042132E+10   1.15042132E+10   1.34599891E+10   8.60101549E+09   8.60101549E+09
   1.46000000E-02   7.24084802E+09   1.12864290E+10   1.12864290E+10   1.33098308E+10   8.51578189E+09   8.51578189E+09
   1.48000000E-02   7.16650689E+09   1.10676366E+10   1.10676366E+10   1.31526327E+10   8.42728501E+09   8.42728501E+09
   1.50000000E-02   7.09026375E+09   1.08482264E+10   1.08482264E+10   1.29889213E+10   8.33575868E+09   8.33575868E+09
   1.52000000E-02   7.01226897E+09   1.06285659E+10   1.06285659E+10   1.28192123E+10   8.24143089E+09   8.24143089E+09
   1.54000000E-02   6.93266789E+09   1.04089997E+10   1.04089997E+10   1.26440086E+10   8.14452359E+09   8.14452359E+09
   1.56000000E-02   6.85160090E+09   1.01898509E+10   1.01898509E+10   1.24638005E+10   8.04525249E+09   8.04525249E+09
   1.58000000E-02   6.76920341E+09   9.97142099E+09   9.97142099E+09   1.22790646E+10   7.94382690E+09   7.94382690E+09
   1.60000000E-02   6.68560595E+09   9.75399110E+09   9.75399110E+09   1.20902629E+10   7.84044957E+09   7.84044957E+09
   1.62000000E-02   6.60093418E+09   9.53782236E+09   9.53782236E+09   1.18978427E+10   7.73531662E+09   7.73531662E+09
   1.64000000E-02   6.51530899E+09   9.32315673E+09   9.32315673E+09   1.17022363E+10   7.62861743E+09   7.62861743E+09
   1.66000000E-02   6.42884650E+09   9.11021771E+09   9.11021771E+09   1.15038600E+10   7.52053466E+09   7.52053466E+09
   1.68000000E-02   6.34165823E+09   8.89921106E+09   8.89921106E+09   1.13031147E+10   7.41124415E+09   7.41124415E+09
   1.70000000E-02   6.25385110E+09   8.69032551E+09   8.69032551E+09   1.11003852E+10   7.30091496E+09   7.30091496E+09
   1.72000000E-02   6.16552754E+09   8.48373355E+09   8.48373355E+09   1.08960401E+10   7.18970941E+09   7.18970941E+09
   1.74000000E-02   6.07678561E+09   8.27959208E+09   8.27959208E+09   1.06904323E+10   7.07778307E+09   7.07778307E+09
   1.76000000E-02   5.98771902E+09   8.07804318E+09   8.07804318E+09   1.04838983E+10   6.96528483E+09   6.96528483E+09
   1.78000000E-02   5.89841732E+09   7.87921480E+09   7.87921480E+09   1.02767589E+10   6.85235701E+09   6.85235701E+09
   1.80000000E-02   5.80896592E+09   7.68322147E+09   7.68322147E+09   1.00693189E+10   6.73913541E+09   6.73913541E+09
   1.82000000E-02   5.71944624E+09   7.49016495E+09   7.49016495E+09   9.86186765E+09   6.62574939E+09   6.62574939E+09
   1.84000000E-02   5.62993578E+09   7.30013495E+09   7.30013495E+09   9.65467888E+09   6.51232203E+09   6.51232203E+09
   1.86000000E-02   5.54050824E+09   7.11320976E+09   7.11320976E+09   9.44801128E+09   6.39897021E+09   6.39897021E+09
   1.88000000E-02   5.45123362E+09   6.92945688E+09   6.92945688E+09   9.24210864E+09   6.28580475E+09   6.28580475E+09
   1.90000000E-02   5.36217833E+09   6.74893363E+09   6.74893363E+09   9.03720018E+09   6.17293054E+09   6.17293054E+09
   1.92000000E-02   5.27340530E+09   6.57168781E+09   6.57168781E+09   8.83350089E+09   6.06044670E+09   6.06044670E+09
   1.94000000E-02   5.18497405E+09   6.39775820E+09   6.39775820E+09   8.63121190E+09   5.94844670E+09   5.94844670E+09
   1.96000000E-02   5.09694085E+09   6.22717517E+09   6.22717517E+09   8.43052083E+09   5.83701852E+09   5.83701852E+09
   1.98000000E-02   5.00935876E+09   6.05996122E+09   6.05996122E+09   8.23160223E+09   5.72624483E+09   5.72624483E+09
   2.00000000E-02   4.92227780E+09   5.89613148E+09   5.89613148E+09   8.03461791E+09   5.61620311E+09   5.61620311E+09
   2.02000000E-02   4.83574500E+09   5.73569421E+09   5.73569421E+09   7.83971744E+09   5.50696582E+09   5.50696582E+09
   2.04000000E-02   4.74980452E+09   5.57865131E+09   5.57865131E+09   7.64703850E+09   5.39860060E+09   5.39860060E+09
   2.06000000E-02   4.66449776E+09   5.42499874E+09   5.42499874E+09   7.45670733E+09   5.29117037E+09   5.29117037E+09
   2.08000000E-02   4.57986344E+09   5.27472701E+09   5.27472701E+09   7.26883918E+09   5.18473354E+09   5.18473354E+09
   2.10000000E-02   4.49593769E+09   5.12782152E+09   5.12782152E+09   7.08353870E+09   5.07934417E+09   5.07934417E+09
   2.12000000E-02   4.41275418E+09   4.98426305E+09   4.98426305E+09   6.90090040E+09   4.97505209E+09   4.97505209E+09
   2.14000000E-02   4.33034418E+09   4.84402808E+09   4.84402808E+09   6.72100906E+09   4.87190312E+09   4.87190312E+09
   2.16000000E-02   4.24873666E+09   4.70708918E+09   4.70708918E+09   6.54394019E+09   4.76993919E+09   4.76993919E+09
   2.18000000E-02   4.16795839E+09   4.57341531E+09   4.57341531E+09   6.36976038E+09   4.66919850E+09   4.66919850E+09
   2.20000000E-02   4.08803401E+09   4.44297223E+09   4.44297223E+09   6.19852780E+09   4.56971570E+09   4.56971570E+09
   2.22000000E-02   4.00898612E+09   4.31572272E+09   4.31572272E+09   6.03029256E+09   4.47152202E+09   4.47152202E+09
   2.24000000E-02   3.93083537E+09   4.19162693E+09   4.19162693E+09   5.86509710E+09   4.37464542E+09   4.37464542E+09
   2.26000000E-02   3.85360055E+09   4.07064263E+09   4.07064263E+09   5.70297662E+09   4.27911075E+09   4.27911075E+09
   2.28000000E-02   3.77729865E+09   3.95272547E+09   3.95272547E+09   5.54395946E+09   4.18493990E+09   4.18493990E+09
   2.30000000E-02   3.70194493E+09   3.83782922E+09   3.83782922E+09   5.38806745E+09   4.09215191E+09   4.09215191E+09
   2.32000000E-02   3.62755302E+09   3.72590604E+09   3.72590604E+09   5.23531630E+09   4.00076314E+09   4.00076314E+09
   2.34000000E-02   3.55413498E+09   3.61690662E+09   3.61690662E+09   5.08571595E+09   3.91078738E+09   3.91078738E+09
   2.36000000E-02   3.48170138E+09   3.51078045E+09   3.51078045E+09   4.93927092E+09   3.82223602E+09   3.82223602E+09
   2.38000000E-02   3.41026135E+09   3.40747600E+09   3.40747600E+09   4.79598063E+09   3.73511812E+09   3.73511812E+09
   2.40000000E-02   3.33982267E+09   3.30694085E+09   3.30694085E+09   4.65583974E+09   3.64944056E+09   3.64944056E+09
   2.42000000E-02   3.27039179E+09   3.20912190E+09   3.20912190E+09   4.51883846E+09   3.56520819E+09   3.56520819E+09
   2.44000000E-02   3.20197397E+09   3.11396550E+09   3.11396550E+09   4.38496286E+09   3.48242388E+09   3.48242388E+09
   2.46000000E-02   3.13457327E+09   3.02141763E+09   3.02141763E+09   4.25419513E+09   3.40108871E+09   3.40108871E+09
   2.48000000E-02   3.06819262E+09   2.93142396E+09   2.93142396E+09   4.12651392E+09   3.32120199E+09   3.32120199E+09
   2.50000000E-02   3.00283392E+09   2.84393005E+09   2.84393005E+09   4.00189453E+09   3.24276144E+09   3.24276144E+09
   2.52000000E-02   2.93849805E+09   2.75888142E+09   2.75888142E+09   3.88030924E+09   3.16576326E+09   3.16576326E+09
   2.54000000E-02   2.87518493E+09   2.67622366E+09   2.67622366E+09   3.76172752E+09   3.09020221E+09   3.09020221E+09
   2.56000000E-02   2.81289359E+09   2.59590252E+09   2.59590252E+09   3.64611628E+09   3.01607174E+09   3.01607174E+09
   2.58000000E-02   2.75162221E+09   2.51786402E+09   2.51786402E+09   3.53344006E+09   2.94336403E+09   2.94336403E+09
   2.60000000E-02   2.69136816E+09   2.44205452E+09   2.44205452E+09   3.42366131E+09   2.87207014E+09   2.87207014E+09
   2.62000000E-02   2.63212804E+09   2.36842078E+09   2.36842078E+09   3.31674056E+09   2.80218003E+09   2.80218003E+09
   2.64000000E-02   2.57389776E+09   2.29691003E+09   2.29691003E+09   3.21263658E+09   2.73368268E+09   2.73368268E+09
   2.66000000E-02   2.51667254E+09   2.22747006E+09   2.22747006E+09   3.11130665E+09   2.66656613E+09   2.66656613E+09
   2.68000000E-02   2.46044696E+09   2.16004924E+09   2.16004924E+09   3.01270663E+09   2.60081759E+09   2.60081759E+09
   2.70000000E-02   2.40521504E+09   2.09459657E+09   2.09459657E+09   2.91679125E+09   2.53642349E+09   2.53642349E+09
   2.72000000E-02   2.35097020E+09   2.03106174E+09   2.03106174E+09   2.82351413E+09   2.47336955E+09   2.47336955E+09
   2.74000000E-02   2.29770538E+09   1.96939517E+09   1.96939517E+09   2.73282806E+09   2.41164082E+09   2.41164082E+09
   2.76000000E-02   2.24541301E+09   1.90954802E+09   1.90954802E+09   2.64468503E+09   2.35122177E+09   2.35122177E+09
   2.78000000E-02   2.19408510E+09   1.85147226E+09   1.85147226E+09   2.55903646E+09   2.29209634E+09   2.29209634E+09
   2.80000000E-02   2.14371320E+09   1.79512065E+09   1.79512065E+09   2.47583323E+09   2.23424798E+09   2.23424798E+09
   2.82000000E-02   2.09428850E+09   1.74044679E+09   1.74044679E+09   2.39502586E+09   2.17765972E+09   2.17765972E+09
   2.84000000E-02   2.04580183E+09   1.68740513E+09   1.68740513E+09   2.31656462E+09   2.12231419E+09   2.12231419E+09
   2.86000000E-02   1.99824367E+09   1.63595099E+09   1.63595099E+09   2.24039959E+09   2.06819370E+09   2.06819370E+09
   2.88000000E-02   1.95160423E+09   1.58604056E+09   1.58604056E+09   2.16648078E+09   2.01528027E+09   2.01528027E+09
   2.90000000E-02   1.90587340E+09   1.53763095E+09   1.53763095E+09   2.09475823E+09   1.96355564E+09   1.96355564E+09
   2.92000000E-02   1.86104085E+09   1.49068012E+09   1.49068012E+09   2.02518206E+09   1.91300139E+09   1.91300139E+09
   2.94000000E-02   1.81709601E+09   1.44514696E+09   1.44514696E+09   1.95770259E+09   1.86359886E+09   1.86359886E+09
   2.96000000E-02   1.77402809E+09   1.40099126E+09   1.40099126E+09   1.89227036E+09   1.81532930E+09   1.81532930E+09
   2.98000000E-02   1.73182612E+09   1.35817371E+09   1.35817371E+09   1.82883626E+09   1.76817383E+09   1.76817383E+09
   3.00000000E-02   1.69047899E+09   1.31665588E+09   1.31665588E+09   1.76735151E+09   1.72211349E+09   1.72211349E+09
   3.02000000E-02   1.64997540E+09   1.27640028E+09   1.27640028E+09   1.70776778E+09   1.67712927E+09   1.67712927E+09
   3.04000000E-02   1.61030394E+09   1.23737027E+09   1.23737027E+09   1.65003723E+09   1.63320214E+09   1.63320214E+09
   3.06000000E-02   1.57145311E+09   1.19953014E+09   1.19953014E+09   1.59411252E+09   1.59031308E+09   1.59031308E+09
   3.08000000E-02   1.53341129E+09   1.16284502E+09   1.16284502E+09   1.53994688E+09   1.54844307E+09   1.54844307E+09
   3.10000000E-02   1.49616678E+09   1.12728093E+09   1.12728093E+09   1.48749415E+09   1.50757317E+09   1.50757317E+09
   3.12000000E-02   1.45970785E+09   1.09280476E+09   1.09280476E+09   1.43670882E+09   1.46768448E+09   1.46768448E+09
   3.14000000E-02   1.42402267E+09   1.05938423E+09   1.05938423E+09   1.38754602E+09   1.42875821E+09   1.42875821E+09
   3.16000000E-02   1.38909943E+09   1.02698792E+09   1.02698792E+09   1.33996159E+09   1.39077565E+09   1.39077565E+09
   3.18000000E-02   1.35492625E+09   9.95585227E+08   9.95585227E+08   1.29391209E+09   1.35371822E+09   1.35371822E+09
   3.20000000E-02   1.32149127E+09   9.65146363E+08   9.65146363E+08   1.24935482E+09   1.31756748E+09   1.31756748E+09
   3.22000000E-02   1.28878263E+09   9.35642346E+08   9.35642346E+08   1.20624783E+09   1.28230515E+09   1.28230515E+09
   3.24000000E-02   1.25678846E+09   9.07044980E+08   9.07044980E+08   1.16454994E+09   1.24791308E+09   1.24791308E+09
   3.26000000E-02   1.22549693E+09   8.79326844E+08   8.79326844E+08   1.12422076E+09   1.21437332E+09   1.21437332E+09
   3.28000000E-02   1.19489625E+09   8.52461276E+08   8.52461276E+08   1.08522070E+09   1.18166810E+09   1.18166810E+09
