# TBinMid=0.95 ssec TBinWidth=0.1 ss EBinWidth=0.2MeV Fluence at Earth for this timebin in neutrinos per cm^2
# E(GeV)	NuE	NuMu	NuTau	aNuE	aNuMu	aNuTau
   1.38589050E-13   4.81284527E-07   2.51572507E-07   2.51572507E-07   1.57082356E-07   4.13673593E-07   4.13673593E-07
   2.00000000E-04   4.20807863E+07   2.44904879E+07   2.44904879E+07   1.40903364E+07   3.61618152E+07   3.61618152E+07
   4.00000000E-04   1.17769473E+08   7.58699698E+07   7.58699698E+07   4.10498938E+07   1.01316019E+08   1.01316019E+08
   6.00000000E-04   2.12577518E+08   1.49842135E+08   1.49842135E+08   7.75719851E+07   1.83223319E+08   1.83223319E+08
   8.00000000E-04   3.20614572E+08   2.44629881E+08   2.44629881E+08   1.22786067E+08   2.77019953E+08   2.77019953E+08
   1.00000000E-03   4.38196359E+08   3.58539389E+08   3.58539389E+08   1.76247239E+08   3.79708304E+08   3.79708304E+08
   1.20000000E-03   5.62691474E+08   4.89755280E+08   4.89755280E+08   2.37611675E+08   4.89163355E+08   4.89163355E+08
   1.40000000E-03   6.92088696E+08   6.36349609E+08   6.36349609E+08   3.06536194E+08   6.03761768E+08   6.03761768E+08
   1.60000000E-03   8.24787965E+08   7.96328137E+08   7.96328137E+08   3.82643789E+08   7.22204477E+08   7.22204477E+08
   1.80000000E-03   9.59483495E+08   9.67678117E+08   9.67678117E+08   4.65514048E+08   8.43418947E+08   8.43418947E+08
   2.00000000E-03   1.09509165E+09   1.14840917E+09   1.14840917E+09   5.54684090E+08   9.66500054E+08   9.66500054E+08
   2.20000000E-03   1.23070313E+09   1.33658589E+09   1.33658589E+09   6.49654064E+08   1.09067184E+09   1.09067184E+09
   2.40000000E-03   1.36554951E+09   1.53035269E+09   1.53035269E+09   7.49894468E+08   1.21526148E+09   1.21526148E+09
   2.60000000E-03   1.49897872E+09   1.72795211E+09   1.72795211E+09   8.54853954E+08   1.33968078E+09   1.33968078E+09
   2.80000000E-03   1.63043653E+09   1.92773756E+09   1.92773756E+09   9.63966936E+08   1.46341263E+09   1.46341263E+09
   3.00000000E-03   1.75945201E+09   2.12818160E+09   2.12818160E+09   1.07666067E+09   1.58600076E+09   1.58600076E+09
   3.20000000E-03   1.88562600E+09   2.32788064E+09   2.32788064E+09   1.19236166E+09   1.70704172E+09   1.70704172E+09
   3.40000000E-03   2.00862162E+09   2.52555664E+09   2.52555664E+09   1.31050130E+09   1.82617861E+09   1.82617861E+09
   3.60000000E-03   2.12815642E+09   2.72005667E+09   2.72005667E+09   1.43052079E+09   1.94309594E+09   1.94309594E+09
   3.80000000E-03   2.24399577E+09   2.91035058E+09   2.91035058E+09   1.55187534E+09   2.05751537E+09   2.05751537E+09
   4.00000000E-03   2.35594719E+09   3.09552735E+09   3.09552735E+09   1.67403767E+09   2.16919213E+09   2.16919213E+09
   4.20000000E-03   2.46385552E+09   3.27479040E+09   3.27479040E+09   1.79650095E+09   2.27791201E+09   2.27791201E+09
   4.40000000E-03   2.56759862E+09   3.44745212E+09   3.44745212E+09   1.91878109E+09   2.38348865E+09   2.38348865E+09
   4.60000000E-03   2.66708371E+09   3.61292796E+09   3.61292796E+09   2.04041866E+09   2.48576125E+09   2.48576125E+09
   4.80000000E-03   2.76224403E+09   3.77073008E+09   3.77073008E+09   2.16098020E+09   2.58459247E+09   2.58459247E+09
   5.00000000E-03   2.85303600E+09   3.92046087E+09   3.92046087E+09   2.28005923E+09   2.67986655E+09   2.67986655E+09
   5.20000000E-03   2.93943657E+09   4.06180643E+09   4.06180643E+09   2.39727692E+09   2.77148767E+09   2.77148767E+09
   5.40000000E-03   3.02144090E+09   4.19452999E+09   4.19452999E+09   2.51228235E+09   2.85937834E+09   2.85937834E+09
   5.60000000E-03   3.09906033E+09   4.31846558E+09   4.31846558E+09   2.62475259E+09   2.94347802E+09   2.94347802E+09
   5.80000000E-03   3.17232046E+09   4.43351172E+09   4.43351172E+09   2.73439256E+09   3.02374177E+09   3.02374177E+09
   6.00000000E-03   3.24125950E+09   4.53962541E+09   4.53962541E+09   2.84093458E+09   3.10013908E+09   3.10013908E+09
   6.20000000E-03   3.30592669E+09   4.63681638E+09   4.63681638E+09   2.94413790E+09   3.17265267E+09   3.17265267E+09
   6.40000000E-03   3.36638100E+09   4.72514156E+09   4.72514156E+09   3.04378795E+09   3.24127747E+09   3.24127747E+09
   6.60000000E-03   3.42268981E+09   4.80469988E+09   4.80469988E+09   3.13969560E+09   3.30601961E+09   3.30601961E+09
   6.80000000E-03   3.47492783E+09   4.87562734E+09   4.87562734E+09   3.23169622E+09   3.36689547E+09   3.36689547E+09
   7.00000000E-03   3.52317609E+09   4.93809244E+09   4.93809244E+09   3.31964873E+09   3.42393082E+09   3.42393082E+09
   7.20000000E-03   3.56752094E+09   4.99229182E+09   4.99229182E+09   3.40343456E+09   3.47716000E+09   3.47716000E+09
   7.40000000E-03   3.60805330E+09   5.03844633E+09   5.03844633E+09   3.48295660E+09   3.52662511E+09   3.52662511E+09
   7.60000000E-03   3.64486786E+09   5.07679725E+09   5.07679725E+09   3.55813808E+09   3.57237532E+09   3.57237532E+09
   7.80000000E-03   3.67806238E+09   5.10760293E+09   5.10760293E+09   3.62892144E+09   3.61446613E+09   3.61446613E+09
   8.00000000E-03   3.70773709E+09   5.13113563E+09   5.13113563E+09   3.69526725E+09   3.65295879E+09   3.65295879E+09
   8.20000000E-03   3.73399414E+09   5.14767866E+09   5.14767866E+09   3.75715304E+09   3.68791964E+09   3.68791964E+09
   8.40000000E-03   3.75693707E+09   5.15752371E+09   5.15752371E+09   3.81457220E+09   3.71941954E+09   3.71941954E+09
   8.60000000E-03   3.77667037E+09   5.16096855E+09   5.16096855E+09   3.86753289E+09   3.74753337E+09   3.74753337E+09
   8.80000000E-03   3.79329905E+09   5.15831484E+09   5.15831484E+09   3.91605694E+09   3.77233948E+09   3.77233948E+09
   9.00000000E-03   3.80692831E+09   5.14986618E+09   5.14986618E+09   3.96017882E+09   3.79391927E+09   3.79391927E+09
   9.20000000E-03   3.81766317E+09   5.13592642E+09   5.13592642E+09   3.99994459E+09   3.81235670E+09   3.81235670E+09
   9.40000000E-03   3.82560821E+09   5.11679810E+09   5.11679810E+09   4.03541094E+09   3.82773791E+09   3.82773791E+09
   9.60000000E-03   3.83086728E+09   5.09278109E+09   5.09278109E+09   4.06664419E+09   3.84015081E+09   3.84015081E+09
   9.80000000E-03   3.83354328E+09   5.06417138E+09   5.06417138E+09   4.09371941E+09   3.84968475E+09   3.84968475E+09
   1.00000000E-02   3.83373795E+09   5.03126004E+09   5.03126004E+09   4.11671952E+09   3.85643016E+09   3.85643016E+09
   1.02000000E-02   3.83155171E+09   4.99433234E+09   4.99433234E+09   4.13573446E+09   3.86047826E+09   3.86047826E+09
   1.04000000E-02   3.82708347E+09   4.95366691E+09   4.95366691E+09   4.15086034E+09   3.86192078E+09   3.86192078E+09
   1.06000000E-02   3.82043051E+09   4.90953514E+09   4.90953514E+09   4.16219876E+09   3.86084964E+09   3.86084964E+09
   1.08000000E-02   3.81168835E+09   4.86220061E+09   4.86220061E+09   4.16985601E+09   3.85735679E+09   3.85735679E+09
   1.10000000E-02   3.80095067E+09   4.81191864E+09   4.81191864E+09   4.17394244E+09   3.85153391E+09   3.85153391E+09
   1.12000000E-02   3.78830920E+09   4.75893592E+09   4.75893592E+09   4.17457178E+09   3.84347224E+09   3.84347224E+09
   1.14000000E-02   3.77385366E+09   4.70349025E+09   4.70349025E+09   4.17186058E+09   3.83326240E+09   3.83326240E+09
   1.16000000E-02   3.75767169E+09   4.64581033E+09   4.64581033E+09   4.16592760E+09   3.82099418E+09   3.82099418E+09
   1.18000000E-02   3.73984881E+09   4.58611563E+09   4.58611563E+09   4.15689330E+09   3.80675642E+09   3.80675642E+09
   1.20000000E-02   3.72046840E+09   4.52461630E+09   4.52461630E+09   4.14487936E+09   3.79063684E+09   3.79063684E+09
   1.22000000E-02   3.69961163E+09   4.46151313E+09   4.46151313E+09   4.13000819E+09   3.77272193E+09   3.77272193E+09
   1.24000000E-02   3.67735749E+09   4.39699765E+09   4.39699765E+09   4.11240255E+09   3.75309683E+09   3.75309683E+09
   1.26000000E-02   3.65378275E+09   4.33125209E+09   4.33125209E+09   4.09218513E+09   3.73184523E+09   3.73184523E+09
   1.28000000E-02   3.62896195E+09   4.26444957E+09   4.26444957E+09   4.06947819E+09   3.70904927E+09   3.70904927E+09
   1.30000000E-02   3.60296743E+09   4.19675418E+09   4.19675418E+09   4.04440324E+09   3.68478946E+09   3.68478946E+09
   1.32000000E-02   3.57586932E+09   4.12832118E+09   4.12832118E+09   4.01708074E+09   3.65914464E+09   3.65914464E+09
   1.34000000E-02   3.54773555E+09   4.05929715E+09   4.05929715E+09   3.98762982E+09   3.63219186E+09   3.63219186E+09
   1.36000000E-02   3.51863190E+09   3.98982023E+09   3.98982023E+09   3.95616802E+09   3.60400639E+09   3.60400639E+09
   1.38000000E-02   3.48862196E+09   3.92002034E+09   3.92002034E+09   3.92281111E+09   3.57466166E+09   3.57466166E+09
   1.40000000E-02   3.45776724E+09   3.85001938E+09   3.85001938E+09   3.88767284E+09   3.54422918E+09   3.54422918E+09
   1.42000000E-02   3.42612711E+09   3.77993152E+09   3.77993152E+09   3.85086478E+09   3.51277859E+09   3.51277859E+09
   1.44000000E-02   3.39375890E+09   3.70986345E+09   3.70986345E+09   3.81249619E+09   3.48037758E+09   3.48037758E+09
   1.46000000E-02   3.36071789E+09   3.63991463E+09   3.63991463E+09   3.77267382E+09   3.44709190E+09   3.44709190E+09
   1.48000000E-02   3.32705739E+09   3.57017757E+09   3.57017757E+09   3.73150187E+09   3.41298533E+09   3.41298533E+09
   1.50000000E-02   3.29282872E+09   3.50073810E+09   3.50073810E+09   3.68908183E+09   3.37811971E+09   3.37811971E+09
   1.52000000E-02   3.25808131E+09   3.43167564E+09   3.43167564E+09   3.64551240E+09   3.34255492E+09   3.34255492E+09
   1.54000000E-02   3.22286269E+09   3.36306345E+09   3.36306345E+09   3.60088946E+09   3.30634887E+09   3.30634887E+09
   1.56000000E-02   3.18721856E+09   3.29496897E+09   3.29496897E+09   3.55530596E+09   3.26955757E+09   3.26955757E+09
   1.58000000E-02   3.15119283E+09   3.22745399E+09   3.22745399E+09   3.50885191E+09   3.23223506E+09   3.23223506E+09
   1.60000000E-02   3.11482765E+09   3.16057500E+09   3.16057500E+09   3.46161435E+09   3.19443349E+09   3.19443349E+09
   1.62000000E-02   3.07816346E+09   3.09438340E+09   3.09438340E+09   3.41367731E+09   3.15620312E+09   3.15620312E+09
   1.64000000E-02   3.04123903E+09   3.02892579E+09   3.02892579E+09   3.36512181E+09   3.11759235E+09   3.11759235E+09
   1.66000000E-02   3.00409153E+09   2.96424418E+09   2.96424418E+09   3.31602587E+09   3.07864772E+09   3.07864772E+09
   1.68000000E-02   2.96675652E+09   2.90037627E+09   2.90037627E+09   3.26646448E+09   3.03941397E+09   3.03941397E+09
   1.70000000E-02   2.92926804E+09   2.83735564E+09   2.83735564E+09   3.21650968E+09   2.99993406E+09   2.99993406E+09
   1.72000000E-02   2.89165863E+09   2.77521206E+09   2.77521206E+09   3.16623051E+09   2.96024920E+09   2.96024920E+09
   1.74000000E-02   2.85395940E+09   2.71397162E+09   2.71397162E+09   3.11569312E+09   2.92039886E+09   2.92039886E+09
   1.76000000E-02   2.81620004E+09   2.65365701E+09   2.65365701E+09   3.06496071E+09   2.88042086E+09   2.88042086E+09
   1.78000000E-02   2.77840885E+09   2.59428770E+09   2.59428770E+09   3.01409367E+09   2.84035135E+09   2.84035135E+09
   1.80000000E-02   2.74061285E+09   2.53588013E+09   2.53588013E+09   2.96314955E+09   2.80022487E+09   2.80022487E+09
   1.82000000E-02   2.70283775E+09   2.47844795E+09   2.47844795E+09   2.91218314E+09   2.76007440E+09   2.76007440E+09
   1.84000000E-02   2.66510802E+09   2.42200214E+09   2.42200214E+09   2.86124654E+09   2.71993137E+09   2.71993137E+09
   1.86000000E-02   2.62744693E+09   2.36655123E+09   2.36655123E+09   2.81038918E+09   2.67982573E+09   2.67982573E+09
   1.88000000E-02   2.58987660E+09   2.31210145E+09   2.31210145E+09   2.75965790E+09   2.63978595E+09   2.63978595E+09
   1.90000000E-02   2.55241800E+09   2.25865692E+09   2.25865692E+09   2.70909702E+09   2.59983910E+09   2.59983910E+09
   1.92000000E-02   2.51509103E+09   2.20621976E+09   2.20621976E+09   2.65874838E+09   2.56001087E+09   2.56001087E+09
   1.94000000E-02   2.47791453E+09   2.15479027E+09   2.15479027E+09   2.60865143E+09   2.52032561E+09   2.52032561E+09
   1.96000000E-02   2.44090634E+09   2.10436704E+09   2.10436704E+09   2.55884329E+09   2.48080635E+09   2.48080635E+09
   1.98000000E-02   2.40408329E+09   2.05494714E+09   2.05494714E+09   2.50935879E+09   2.44147490E+09   2.44147490E+09
   2.00000000E-02   2.36746129E+09   2.00652617E+09   2.00652617E+09   2.46023059E+09   2.40235182E+09   2.40235182E+09
   2.02000000E-02   2.33105534E+09   1.95909843E+09   1.95909843E+09   2.41148922E+09   2.36345649E+09   2.36345649E+09
   2.04000000E-02   2.29487955E+09   1.91265703E+09   1.91265703E+09   2.36316313E+09   2.32480716E+09   2.32480716E+09
   2.06000000E-02   2.25894718E+09   1.86719397E+09   1.86719397E+09   2.31527880E+09   2.28642096E+09   2.28642096E+09
   2.08000000E-02   2.22327068E+09   1.82270027E+09   1.82270027E+09   2.26786078E+09   2.24831395E+09   2.24831395E+09
   2.10000000E-02   2.18786173E+09   1.77916603E+09   1.77916603E+09   2.22093178E+09   2.21050119E+09   2.21050119E+09
   2.12000000E-02   2.15273122E+09   1.73658058E+09   1.73658058E+09   2.17451271E+09   2.17299670E+09   2.17299670E+09
   2.14000000E-02   2.11788934E+09   1.69493249E+09   1.69493249E+09   2.12862279E+09   2.13581357E+09   2.13581357E+09
   2.16000000E-02   2.08334557E+09   1.65420969E+09   1.65420969E+09   2.08327958E+09   2.09896397E+09   2.09896397E+09
   2.18000000E-02   2.04910872E+09   1.61439956E+09   1.61439956E+09   2.03849905E+09   2.06245916E+09   2.06245916E+09
   2.20000000E-02   2.01518697E+09   1.57548895E+09   1.57548895E+09   1.99429567E+09   2.02630956E+09   2.02630956E+09
   2.22000000E-02   1.98158784E+09   1.53746430E+09   1.53746430E+09   1.95068245E+09   1.99052478E+09   1.99052478E+09
   2.24000000E-02   1.94831831E+09   1.50031165E+09   1.50031165E+09   1.90767101E+09   1.95511361E+09   1.95511361E+09
   2.26000000E-02   1.91538473E+09   1.46401673E+09   1.46401673E+09   1.86527165E+09   1.92008410E+09   1.92008410E+09
   2.28000000E-02   1.88279295E+09   1.42856500E+09   1.42856500E+09   1.82349339E+09   1.88544358E+09   1.88544358E+09
   2.30000000E-02   1.85054828E+09   1.39394169E+09   1.39394169E+09   1.78234406E+09   1.85119868E+09   1.85119868E+09
   2.32000000E-02   1.81865552E+09   1.36013189E+09   1.36013189E+09   1.74183033E+09   1.81735536E+09   1.81735536E+09
   2.34000000E-02   1.78711898E+09   1.32712052E+09   1.32712052E+09   1.70195777E+09   1.78391893E+09   1.78391893E+09
   2.36000000E-02   1.75594254E+09   1.29489242E+09   1.29489242E+09   1.66273091E+09   1.75089412E+09   1.75089412E+09
   2.38000000E-02   1.72512961E+09   1.26343238E+09   1.26343238E+09   1.62415332E+09   1.71828505E+09   1.71828505E+09
   2.40000000E-02   1.69468320E+09   1.23272517E+09   1.23272517E+09   1.58622759E+09   1.68609530E+09   1.68609530E+09
   2.42000000E-02   1.66460590E+09   1.20275554E+09   1.20275554E+09   1.54895547E+09   1.65432791E+09   1.65432791E+09
   2.44000000E-02   1.63489992E+09   1.17350830E+09   1.17350830E+09   1.51233783E+09   1.62298541E+09   1.62298541E+09
   2.46000000E-02   1.60556711E+09   1.14496831E+09   1.14496831E+09   1.47637479E+09   1.59206987E+09   1.59206987E+09
   2.48000000E-02   1.57660896E+09   1.11712051E+09   1.11712051E+09   1.44106570E+09   1.56158287E+09   1.56158287E+09
   2.50000000E-02   1.54802664E+09   1.08994995E+09   1.08994995E+09   1.40640922E+09   1.53152558E+09   1.53152558E+09
   2.52000000E-02   1.51982097E+09   1.06344179E+09   1.06344179E+09   1.37240335E+09   1.50189875E+09   1.50189875E+09
   2.54000000E-02   1.49199251E+09   1.03758135E+09   1.03758135E+09   1.33904547E+09   1.47270272E+09   1.47270272E+09
   2.56000000E-02   1.46454150E+09   1.01235408E+09   1.01235408E+09   1.30633238E+09   1.44393748E+09   1.44393748E+09
   2.58000000E-02   1.43746792E+09   9.87745618E+08   9.87745618E+08   1.27426035E+09   1.41560266E+09   1.41560266E+09
   2.60000000E-02   1.41077148E+09   9.63741777E+08   9.63741777E+08   1.24282514E+09   1.38769756E+09   1.38769756E+09
   2.62000000E-02   1.38445164E+09   9.40328562E+08   9.40328562E+08   1.21202204E+09   1.36022114E+09   1.36022114E+09
   2.64000000E-02   1.35850765E+09   9.17492181E+08   9.17492181E+08   1.18184589E+09   1.33317209E+09   1.33317209E+09
   2.66000000E-02   1.33293851E+09   8.95219050E+08   8.95219050E+08   1.15229116E+09   1.30654882E+09   1.30654882E+09
   2.68000000E-02   1.30774302E+09   8.73495805E+08   8.73495805E+08   1.12335193E+09   1.28034945E+09   1.28034945E+09
   2.70000000E-02   1.28291978E+09   8.52309304E+08   8.52309304E+08   1.09502193E+09   1.25457188E+09   1.25457188E+09
   2.72000000E-02   1.25846719E+09   8.31646633E+08   8.31646633E+08   1.06729458E+09   1.22921375E+09   1.22921375E+09
   2.74000000E-02   1.23438351E+09   8.11495113E+08   8.11495113E+08   1.04016301E+09   1.20427252E+09   1.20427252E+09
   2.76000000E-02   1.21066678E+09   7.91842297E+08   7.91842297E+08   1.01362011E+09   1.17974540E+09   1.17974540E+09
   2.78000000E-02   1.18731492E+09   7.72675983E+08   7.72675983E+08   9.87658509E+08   1.15562944E+09   1.15562944E+09
   2.80000000E-02   1.16432568E+09   7.53984203E+08   7.53984203E+08   9.62270621E+08   1.13192149E+09   1.13192149E+09
   2.82000000E-02   1.14169669E+09   7.35755237E+08   7.35755237E+08   9.37448682E+08   1.10861827E+09   1.10861827E+09
   2.84000000E-02   1.11942543E+09   7.17977602E+08   7.17977602E+08   9.13184748E+08   1.08571630E+09   1.08571630E+09
   2.86000000E-02   1.09750926E+09   7.00640063E+08   7.00640063E+08   8.89470731E+08   1.06321199E+09   1.06321199E+09
   2.88000000E-02   1.07594545E+09   6.83731622E+08   6.83731622E+08   8.66298407E+08   1.04110161E+09   1.04110161E+09
   2.90000000E-02   1.05473112E+09   6.67241526E+08   6.67241526E+08   8.43659442E+08   1.01938130E+09   1.01938130E+09
   2.92000000E-02   1.03386333E+09   6.51159260E+08   6.51159260E+08   8.21545403E+08   9.98047097E+08   9.98047097E+08
   2.94000000E-02   1.01333903E+09   6.35474548E+08   6.35474548E+08   7.99947779E+08   9.77094943E+08   9.77094943E+08
   2.96000000E-02   9.93155087E+08   6.20177351E+08   6.20177351E+08   7.78857996E+08   9.56520676E+08   9.56520676E+08
   2.98000000E-02   9.73308280E+08   6.05257863E+08   6.05257863E+08   7.58267428E+08   9.36320055E+08   9.36320055E+08
   3.00000000E-02   9.53795327E+08   5.90706508E+08   5.90706508E+08   7.38167412E+08   9.16488763E+08   9.16488763E+08
   3.02000000E-02   9.34612875E+08   5.76513941E+08   5.76513941E+08   7.18549264E+08   8.97022415E+08   8.97022415E+08
   3.04000000E-02   9.15757508E+08   5.62671041E+08   5.62671041E+08   6.99404287E+08   8.77916566E+08   8.77916566E+08
   3.06000000E-02   8.97225757E+08   5.49168910E+08   5.49168910E+08   6.80723785E+08   8.59166719E+08   8.59166719E+08
   3.08000000E-02   8.79014100E+08   5.35998867E+08   5.35998867E+08   6.62499072E+08   8.40768331E+08   8.40768331E+08
   3.10000000E-02   8.61118971E+08   5.23152447E+08   5.23152447E+08   6.44721481E+08   8.22716819E+08   8.22716819E+08
   3.12000000E-02   8.43536764E+08   5.10621397E+08   5.10621397E+08   6.27382379E+08   8.05007567E+08   8.05007567E+08
   3.14000000E-02   8.26263834E+08   4.98397672E+08   4.98397672E+08   6.10473168E+08   7.87635930E+08   7.87635930E+08
   3.16000000E-02   8.09296506E+08   4.86473429E+08   4.86473429E+08   5.93985298E+08   7.70597242E+08   7.70597242E+08
   3.18000000E-02   7.92631079E+08   4.74841027E+08   4.74841027E+08   5.77910272E+08   7.53886822E+08   7.53886822E+08
   3.20000000E-02   7.76263825E+08   4.63493019E+08   4.63493019E+08   5.62239657E+08   7.37499975E+08   7.37499975E+08
   3.22000000E-02   7.60190999E+08   4.52422151E+08   4.52422151E+08   5.46965084E+08   7.21432000E+08   7.21432000E+08
   3.24000000E-02   7.44408839E+08   4.41621357E+08   4.41621357E+08   5.32078259E+08   7.05678194E+08   7.05678194E+08
   3.26000000E-02   7.28913570E+08   4.31083754E+08   4.31083754E+08   5.17570969E+08   6.90233853E+08   6.90233853E+08
   3.28000000E-02   7.13701408E+08   4.20802638E+08   4.20802638E+08   5.03435083E+08   6.75094282E+08   6.75094282E+08
