# TBinMid=0.55 ssec TBinWidth=0.1 ss EBinWidth=0.2MeV Fluence at Earth for this timebin in neutrinos per cm^2
# E(GeV)	NuE	NuMu	NuTau	aNuE	aNuMu	aNuTau
   1.38589050E-13   2.63627764E-08   1.37801018E-08   1.37801018E-08   8.60432198E-09   2.26593290E-08   2.26593290E-08
   2.00000000E-04   3.60120346E+07   2.20855889E+07   2.20855889E+07   1.21394663E+07   3.09246467E+07   3.09246467E+07
   4.00000000E-04   1.10309164E+08   7.69422105E+07   7.69422105E+07   3.90998293E+07   9.48362334E+07   9.48362334E+07
   6.00000000E-04   2.09805646E+08   1.62722883E+08   1.62722883E+08   7.86804626E+07   1.80790599E+08   1.80790599E+08
   8.00000000E-04   3.28262072E+08   2.78319084E+08   2.78319084E+08   1.30513913E+08   2.83737557E+08   2.83737557E+08
   1.00000000E-03   4.61435136E+08   4.22059568E+08   4.22059568E+08   1.94498948E+08   4.00310826E+08   4.00310826E+08
   1.20000000E-03   6.06101625E+08   5.91770551E+08   5.91770551E+08   2.70519014E+08   5.27977035E+08   5.27977035E+08
   1.40000000E-03   7.59673986E+08   7.84922406E+08   7.84922406E+08   3.58357419E+08   6.64702154E+08   6.64702154E+08
   1.60000000E-03   9.20007504E+08   9.98764040E+08   9.98764040E+08   4.57674288E+08   8.08786537E+08   8.08786537E+08
   1.80000000E-03   1.08528886E+09   1.23043219E+09   1.23043219E+09   5.68007743E+08   9.58771837E+08   9.58771837E+08
   2.00000000E-03   1.25396521E+09   1.47703701E+09   1.47703701E+09   6.88785363E+08   1.11338369E+09   1.11338369E+09
   2.20000000E-03   1.42469573E+09   1.73572771E+09   1.73572771E+09   8.19339861E+08   1.27149414E+09   1.27149414E+09
   2.40000000E-03   1.59631669E+09   2.00374201E+09   2.00374201E+09   9.58926067E+08   1.43209577E+09   1.43209577E+09
   2.60000000E-03   1.76781510E+09   2.27844249E+09   2.27844249E+09   1.10673775E+09   1.59428322E+09   1.59428322E+09
   2.80000000E-03   1.93830816E+09   2.55734259E+09   2.55734259E+09   1.26192350E+09   1.75723950E+09   1.75723950E+09
   3.00000000E-03   2.10702679E+09   2.83812409E+09   2.83812409E+09   1.42360136E+09   1.92022550E+09   1.92022550E+09
   3.20000000E-03   2.27330201E+09   3.11864810E+09   3.11864810E+09   1.59087197E+09   2.08257180E+09   2.08257180E+09
   3.40000000E-03   2.43655363E+09   3.39696062E+09   3.39696062E+09   1.76283023E+09   2.24367211E+09   2.24367211E+09
   3.60000000E-03   2.59628048E+09   3.67129401E+09   3.67129401E+09   1.93857549E+09   2.40297778E+09   2.40297778E+09
   3.80000000E-03   2.75205207E+09   3.94006519E+09   3.94006519E+09   2.11722037E+09   2.55999322E+09   2.55999322E+09
   4.00000000E-03   2.90350126E+09   4.20187130E+09   4.20187130E+09   2.29789823E+09   2.71427199E+09   2.71427199E+09
   4.20000000E-03   3.05031784E+09   4.45548346E+09   4.45548346E+09   2.47976950E+09   2.86541327E+09   2.86541327E+09
   4.40000000E-03   3.19224276E+09   4.69983913E+09   4.69983913E+09   2.66202684E+09   3.01305878E+09   3.01305878E+09
   4.60000000E-03   3.32906305E+09   4.93403345E+09   4.93403345E+09   2.84389935E+09   3.15689002E+09   3.15689002E+09
   4.80000000E-03   3.46060723E+09   5.15730987E+09   5.15730987E+09   3.02465589E+09   3.29662563E+09   3.29662563E+09
   5.00000000E-03   3.58674113E+09   5.36905048E+09   5.36905048E+09   3.20360756E+09   3.43201910E+09   3.43201910E+09
   5.20000000E-03   3.70736419E+09   5.56876599E+09   5.56876599E+09   3.38010953E+09   3.56285644E+09   3.56285644E+09
   5.40000000E-03   3.82240603E+09   5.75608578E+09   5.75608578E+09   3.55356219E+09   3.68895420E+09   3.68895420E+09
   5.60000000E-03   3.93182337E+09   5.93074809E+09   5.93074809E+09   3.72341179E+09   3.81015742E+09   3.81015742E+09
   5.80000000E-03   4.03559723E+09   6.09259034E+09   6.09259034E+09   3.88915060E+09   3.92633781E+09   3.92633781E+09
   6.00000000E-03   4.13373034E+09   6.24153982E+09   6.24153982E+09   4.05031666E+09   4.03739195E+09   4.03739195E+09
   6.20000000E-03   4.22624484E+09   6.37760474E+09   6.37760474E+09   4.20649314E+09   4.14323959E+09   4.14323959E+09
   6.40000000E-03   4.31318009E+09   6.50086568E+09   6.50086568E+09   4.35730750E+09   4.24382208E+09   4.24382208E+09
   6.60000000E-03   4.39459076E+09   6.61146748E+09   6.61146748E+09   4.50243027E+09   4.33910077E+09   4.33910077E+09
   6.80000000E-03   4.47054502E+09   6.70961162E+09   6.70961162E+09   4.64157373E+09   4.42905556E+09   4.42905556E+09
   7.00000000E-03   4.54112292E+09   6.79554903E+09   6.79554903E+09   4.77449039E+09   4.51368353E+09   4.51368353E+09
   7.20000000E-03   4.60641492E+09   6.86957341E+09   6.86957341E+09   4.90097130E+09   4.59299755E+09   4.59299755E+09
   7.40000000E-03   4.66652048E+09   6.93201504E+09   6.93201504E+09   5.02084433E+09   4.66702503E+09   4.66702503E+09
   7.60000000E-03   4.72154687E+09   6.98323500E+09   6.98323500E+09   5.13397230E+09   4.73580670E+09   4.73580670E+09
   7.80000000E-03   4.77160800E+09   7.02361991E+09   7.02361991E+09   5.24025114E+09   4.79939545E+09   4.79939545E+09
   8.00000000E-03   4.81682342E+09   7.05357701E+09   7.05357701E+09   5.33960791E+09   4.85785524E+09   4.85785524E+09
   8.20000000E-03   4.85731734E+09   7.07352981E+09   7.07352981E+09   5.43199894E+09   4.91126003E+09   4.91126003E+09
   8.40000000E-03   4.89321783E+09   7.08391399E+09   7.08391399E+09   5.51740784E+09   4.95969283E+09   4.95969283E+09
   8.60000000E-03   4.92465599E+09   7.08517377E+09   7.08517377E+09   5.59584367E+09   5.00324472E+09   5.00324472E+09
   8.80000000E-03   4.95176526E+09   7.07775862E+09   7.07775862E+09   5.66733899E+09   5.04201401E+09   5.04201401E+09
   9.00000000E-03   4.97468081E+09   7.06212032E+09   7.06212032E+09   5.73194807E+09   5.07610536E+09   5.07610536E+09
   9.20000000E-03   4.99353895E+09   7.03871029E+09   7.03871029E+09   5.78974507E+09   5.10562903E+09   5.10562903E+09
   9.40000000E-03   5.00847657E+09   7.00797729E+09   7.00797729E+09   5.84082233E+09   5.13070011E+09   5.13070011E+09
   9.60000000E-03   5.01963073E+09   6.97036535E+09   6.97036535E+09   5.88528866E+09   5.15143787E+09   5.15143787E+09
   9.80000000E-03   5.02713822E+09   6.92631198E+09   6.92631198E+09   5.92326775E+09   5.16796505E+09   5.16796505E+09
   1.00000000E-02   5.03113515E+09   6.87624659E+09   6.87624659E+09   5.95489660E+09   5.18040731E+09   5.18040731E+09
   1.02000000E-02   5.03175667E+09   6.82058914E+09   6.82058914E+09   5.98032406E+09   5.18889262E+09   5.18889262E+09
   1.04000000E-02   5.02913663E+09   6.75974904E+09   6.75974904E+09   5.99970941E+09   5.19355075E+09   5.19355075E+09
   1.06000000E-02   5.02340733E+09   6.69412416E+09   6.69412416E+09   6.01322101E+09   5.19451278E+09   5.19451278E+09
   1.08000000E-02   5.01469928E+09   6.62410005E+09   6.62410005E+09   6.02103507E+09   5.19191064E+09   5.19191064E+09
   1.10000000E-02   5.00314102E+09   6.55004929E+09   6.55004929E+09   6.02333442E+09   5.18587670E+09   5.18587670E+09
   1.12000000E-02   4.98885891E+09   6.47233102E+09   6.47233102E+09   6.02030741E+09   5.17654336E+09   5.17654336E+09
   1.14000000E-02   4.97197698E+09   6.39129057E+09   6.39129057E+09   6.01214683E+09   5.16404271E+09   5.16404271E+09
   1.16000000E-02   4.95261681E+09   6.30725916E+09   6.30725916E+09   5.99904897E+09   5.14850621E+09   5.14850621E+09
   1.18000000E-02   4.93089743E+09   6.22055382E+09   6.22055382E+09   5.98121265E+09   5.13006436E+09   5.13006436E+09
   1.20000000E-02   4.90693518E+09   6.13147723E+09   6.13147723E+09   5.95883843E+09   5.10884647E+09   5.10884647E+09
   1.22000000E-02   4.88084370E+09   6.04031782E+09   6.04031782E+09   5.93212774E+09   5.08498036E+09   5.08498036E+09
   1.24000000E-02   4.85273381E+09   5.94734980E+09   5.94734980E+09   5.90128224E+09   5.05859221E+09   5.05859221E+09
   1.26000000E-02   4.82271349E+09   5.85283332E+09   5.85283332E+09   5.86650308E+09   5.02980627E+09   5.02980627E+09
   1.28000000E-02   4.79088782E+09   5.75701470E+09   5.75701470E+09   5.82799035E+09   4.99874476E+09   4.99874476E+09
   1.30000000E-02   4.75735902E+09   5.66012661E+09   5.66012661E+09   5.78594245E+09   4.96552768E+09   4.96552768E+09
   1.32000000E-02   4.72222634E+09   5.56238845E+09   5.56238845E+09   5.74055565E+09   4.93027264E+09   4.93027264E+09
   1.34000000E-02   4.68558614E+09   5.46400660E+09   5.46400660E+09   5.69202359E+09   4.89309479E+09   4.89309479E+09
   1.36000000E-02   4.64753185E+09   5.36517477E+09   5.36517477E+09   5.64053689E+09   4.85410669E+09   4.85410669E+09
   1.38000000E-02   4.60815400E+09   5.26607442E+09   5.26607442E+09   5.58628276E+09   4.81341821E+09   4.81341821E+09
   1.40000000E-02   4.56754022E+09   5.16687514E+09   5.16687514E+09   5.52944471E+09   4.77113646E+09   4.77113646E+09
   1.42000000E-02   4.52577528E+09   5.06773500E+09   5.06773500E+09   5.47020221E+09   4.72736574E+09   4.72736574E+09
   1.44000000E-02   4.48294113E+09   4.96880104E+09   4.96880104E+09   5.40873049E+09   4.68220749E+09   4.68220749E+09
   1.46000000E-02   4.43911689E+09   4.87020966E+09   4.87020966E+09   5.34520031E+09   4.63576022E+09   4.63576022E+09
   1.48000000E-02   4.39437893E+09   4.77208704E+09   4.77208704E+09   5.27977777E+09   4.58811951E+09   4.58811951E+09
   1.50000000E-02   4.34880091E+09   4.67454960E+09   4.67454960E+09   5.21262414E+09   4.53937799E+09   4.53937799E+09
   1.52000000E-02   4.30245380E+09   4.57770439E+09   4.57770439E+09   5.14389579E+09   4.48962534E+09   4.48962534E+09
   1.54000000E-02   4.25540594E+09   4.48164956E+09   4.48164956E+09   5.07374402E+09   4.43894825E+09   4.43894825E+09
   1.56000000E-02   4.20772309E+09   4.38647476E+09   4.38647476E+09   5.00231504E+09   4.38743048E+09   4.38743048E+09
   1.58000000E-02   4.15946850E+09   4.29226153E+09   4.29226153E+09   4.92974992E+09   4.33515282E+09   4.33515282E+09
   1.60000000E-02   4.11070294E+09   4.19908378E+09   4.19908378E+09   4.85618449E+09   4.28219318E+09   4.28219318E+09
   1.62000000E-02   4.06148474E+09   4.10700813E+09   4.10700813E+09   4.78174944E+09   4.22862653E+09   4.22862653E+09
   1.64000000E-02   4.01186990E+09   4.01609431E+09   4.01609431E+09   4.70657020E+09   4.17452502E+09   4.17452502E+09
   1.66000000E-02   3.96191208E+09   3.92639557E+09   3.92639557E+09   4.63076706E+09   4.11995793E+09   4.11995793E+09
   1.68000000E-02   3.91166272E+09   3.83795903E+09   3.83795903E+09   4.55445518E+09   4.06499179E+09   4.06499179E+09
   1.70000000E-02   3.86117106E+09   3.75082604E+09   3.75082604E+09   4.47774458E+09   4.00969038E+09   4.00969038E+09
   1.72000000E-02   3.81048420E+09   3.66503251E+09   3.66503251E+09   4.40074028E+09   3.95411477E+09   3.95411477E+09
   1.74000000E-02   3.75964716E+09   3.58060928E+09   3.58060928E+09   4.32354235E+09   3.89832341E+09   3.89832341E+09
   1.76000000E-02   3.70870296E+09   3.49758244E+09   3.49758244E+09   4.24624594E+09   3.84237214E+09   3.84237214E+09
   1.78000000E-02   3.65769264E+09   3.41597358E+09   3.41597358E+09   4.16894143E+09   3.78631429E+09   3.78631429E+09
   1.80000000E-02   3.60665535E+09   3.33580017E+09   3.33580017E+09   4.09171449E+09   3.73020069E+09   3.73020069E+09
   1.82000000E-02   3.55562838E+09   3.25707579E+09   3.25707579E+09   4.01464620E+09   3.67407975E+09   3.67407975E+09
   1.84000000E-02   3.50464724E+09   3.17981042E+09   3.17981042E+09   3.93781316E+09   3.61799756E+09   3.61799756E+09
   1.86000000E-02   3.45374570E+09   3.10401069E+09   3.10401069E+09   3.86128756E+09   3.56199786E+09   3.56199786E+09
   1.88000000E-02   3.40295583E+09   3.02968015E+09   3.02968015E+09   3.78513737E+09   3.50612220E+09   3.50612220E+09
   1.90000000E-02   3.35230811E+09   2.95681948E+09   2.95681948E+09   3.70942638E+09   3.45040992E+09   3.45040992E+09
   1.92000000E-02   3.30183141E+09   2.88542672E+09   2.88542672E+09   3.63421438E+09   3.39489829E+09   3.39489829E+09
   1.94000000E-02   3.25155309E+09   2.81549751E+09   2.81549751E+09   3.55955726E+09   3.33962249E+09   3.33962249E+09
   1.96000000E-02   3.20149904E+09   2.74702523E+09   2.74702523E+09   3.48550714E+09   3.28461574E+09   3.28461574E+09
   1.98000000E-02   3.15169371E+09   2.68000126E+09   2.68000126E+09   3.41211249E+09   3.22990935E+09   3.22990935E+09
   2.00000000E-02   3.10216021E+09   2.61441511E+09   2.61441511E+09   3.33941826E+09   3.17553274E+09   3.17553274E+09
   2.02000000E-02   3.05292029E+09   2.55025462E+09   2.55025462E+09   3.26746601E+09   3.12151356E+09   3.12151356E+09
   2.04000000E-02   3.00399444E+09   2.48750610E+09   2.48750610E+09   3.19629402E+09   3.06787771E+09   3.06787771E+09
   2.06000000E-02   2.95540191E+09   2.42615450E+09   2.42615450E+09   3.12593745E+09   3.01464941E+09   3.01464941E+09
   2.08000000E-02   2.90716076E+09   2.36618352E+09   2.36618352E+09   3.05642842E+09   2.96185129E+09   2.96185129E+09
   2.10000000E-02   2.85928792E+09   2.30757577E+09   2.30757577E+09   2.98779618E+09   2.90950438E+09   2.90950438E+09
   2.12000000E-02   2.81179920E+09   2.25031291E+09   2.25031291E+09   2.92006718E+09   2.85762826E+09   2.85762826E+09
   2.14000000E-02   2.76470935E+09   2.19437571E+09   2.19437571E+09   2.85326524E+09   2.80624103E+09   2.80624103E+09
   2.16000000E-02   2.71803212E+09   2.13974420E+09   2.13974420E+09   2.78741161E+09   2.75535943E+09   2.75535943E+09
   2.18000000E-02   2.67178027E+09   2.08639779E+09   2.08639779E+09   2.72252517E+09   2.70499886E+09   2.70499886E+09
   2.20000000E-02   2.62596560E+09   2.03431530E+09   2.03431530E+09   2.65862243E+09   2.65517344E+09   2.65517344E+09
   2.22000000E-02   2.58059902E+09   1.98347511E+09   1.98347511E+09   2.59571776E+09   2.60589607E+09   2.60589607E+09
   2.24000000E-02   2.53569058E+09   1.93385522E+09   1.93385522E+09   2.53382339E+09   2.55717848E+09   2.55717848E+09
   2.26000000E-02   2.49124948E+09   1.88543330E+09   1.88543330E+09   2.47294960E+09   2.50903126E+09   2.50903126E+09
   2.28000000E-02   2.44728413E+09   1.83818681E+09   1.83818681E+09   2.41310477E+09   2.46146395E+09   2.46146395E+09
   2.30000000E-02   2.40380217E+09   1.79209301E+09   1.79209301E+09   2.35429549E+09   2.41448505E+09   2.41448505E+09
   2.32000000E-02   2.36081050E+09   1.74712907E+09   1.74712907E+09   2.29652668E+09   2.36810208E+09   2.36810208E+09
   2.34000000E-02   2.31831533E+09   1.70327210E+09   1.70327210E+09   2.23980166E+09   2.32232163E+09   2.32232163E+09
   2.36000000E-02   2.27632218E+09   1.66049919E+09   1.66049919E+09   2.18412224E+09   2.27714940E+09   2.27714940E+09
   2.38000000E-02   2.23483595E+09   1.61878746E+09   1.61878746E+09   2.12948883E+09   2.23259023E+09   2.23259023E+09
   2.40000000E-02   2.19386090E+09   1.57811414E+09   1.57811414E+09   2.07590048E+09   2.18864815E+09   2.18864815E+09
   2.42000000E-02   2.15340072E+09   1.53845655E+09   1.53845655E+09   2.02335502E+09   2.14532644E+09   2.14532644E+09
   2.44000000E-02   2.11345853E+09   1.49979217E+09   1.49979217E+09   1.97184910E+09   2.10262764E+09   2.10262764E+09
   2.46000000E-02   2.07403691E+09   1.46209867E+09   1.46209867E+09   1.92137827E+09   2.06055358E+09   2.06055358E+09
   2.48000000E-02   2.03513794E+09   1.42535393E+09   1.42535393E+09   1.87193707E+09   2.01910547E+09   2.01910547E+09
   2.50000000E-02   1.99676321E+09   1.38953605E+09   1.38953605E+09   1.82351909E+09   1.97828387E+09   1.97828387E+09
   2.52000000E-02   1.95891384E+09   1.35462341E+09   1.35462341E+09   1.77611702E+09   1.93808875E+09   1.93808875E+09
   2.54000000E-02   1.92159052E+09   1.32059466E+09   1.32059466E+09   1.72972275E+09   1.89851955E+09   1.89851955E+09
   2.56000000E-02   1.88479350E+09   1.28742876E+09   1.28742876E+09   1.68432739E+09   1.85957515E+09   1.85957515E+09
   2.58000000E-02   1.84852266E+09   1.25510495E+09   1.25510495E+09   1.63992139E+09   1.82125397E+09   1.82125397E+09
   2.60000000E-02   1.81277748E+09   1.22360283E+09   1.22360283E+09   1.59649452E+09   1.78355394E+09   1.78355394E+09
   2.62000000E-02   1.77755708E+09   1.19290231E+09   1.19290231E+09   1.55403597E+09   1.74647255E+09   1.74647255E+09
   2.64000000E-02   1.74286026E+09   1.16298368E+09   1.16298368E+09   1.51253443E+09   1.71000691E+09   1.71000691E+09
   2.66000000E-02   1.70868547E+09   1.13382755E+09   1.13382755E+09   1.47197806E+09   1.67415371E+09   1.67415371E+09
   2.68000000E-02   1.67503089E+09   1.10541491E+09   1.10541491E+09   1.43235460E+09   1.63890930E+09   1.63890930E+09
   2.70000000E-02   1.64189437E+09   1.07772711E+09   1.07772711E+09   1.39365140E+09   1.60426968E+09   1.60426968E+09
   2.72000000E-02   1.60927352E+09   1.05074588E+09   1.05074588E+09   1.35585544E+09   1.57023054E+09   1.57023054E+09
   2.74000000E-02   1.57716568E+09   1.02445331E+09   1.02445331E+09   1.31895341E+09   1.53678729E+09   1.53678729E+09
   2.76000000E-02   1.54556795E+09   9.98831874E+08   9.98831874E+08   1.28293171E+09   1.50393504E+09   1.50393504E+09
   2.78000000E-02   1.51447722E+09   9.73864422E+08   9.73864422E+08   1.24777650E+09   1.47166868E+09   1.47166868E+09
   2.80000000E-02   1.48389013E+09   9.49534176E+08   9.49534176E+08   1.21347376E+09   1.43998285E+09   1.43998285E+09
   2.82000000E-02   1.45380315E+09   9.25824736E+08   9.25824736E+08   1.18000927E+09   1.40887199E+09   1.40887199E+09
   2.84000000E-02   1.42421255E+09   9.02720071E+08   9.02720071E+08   1.14736867E+09   1.37833031E+09   1.37833031E+09
   2.86000000E-02   1.39511444E+09   8.80204525E+08   8.80204525E+08   1.11553751E+09   1.34835187E+09   1.34835187E+09
   2.88000000E-02   1.36650475E+09   8.58262808E+08   8.58262808E+08   1.08450124E+09   1.31893057E+09   1.31893057E+09
   2.90000000E-02   1.33837927E+09   8.36879993E+08   8.36879993E+08   1.05424525E+09   1.29006014E+09   1.29006014E+09
   2.92000000E-02   1.31073364E+09   8.16041516E+08   8.16041516E+08   1.02475489E+09   1.26173419E+09   1.26173419E+09
   2.94000000E-02   1.28356336E+09   7.95733167E+08   7.95733167E+08   9.96015503E+08   1.23394620E+09   1.23394620E+09
   2.96000000E-02   1.25686385E+09   7.75941087E+08   7.75941087E+08   9.68012433E+08   1.20668954E+09   1.20668954E+09
   2.98000000E-02   1.23063037E+09   7.56651765E+08   7.56651765E+08   9.40731053E+08   1.17995749E+09   1.17995749E+09
   3.00000000E-02   1.20485812E+09   7.37852029E+08   7.37852029E+08   9.14156780E+08   1.15374326E+09   1.15374326E+09
   3.02000000E-02   1.17954217E+09   7.19529042E+08   7.19529042E+08   8.88275091E+08   1.12803997E+09   1.12803997E+09
   3.04000000E-02   1.15467753E+09   7.01670298E+08   7.01670298E+08   8.63071539E+08   1.10284067E+09   1.10284067E+09
   3.06000000E-02   1.13025914E+09   6.84263612E+08   6.84263612E+08   8.38531771E+08   1.07813838E+09   1.07813838E+09
   3.08000000E-02   1.10628184E+09   6.67297118E+08   6.67297118E+08   8.14641536E+08   1.05392608E+09   1.05392608E+09
   3.10000000E-02   1.08274043E+09   6.50759260E+08   6.50759260E+08   7.91386702E+08   1.03019669E+09   1.03019669E+09
   3.12000000E-02   1.05962966E+09   6.34638786E+08   6.34638786E+08   7.68753264E+08   1.00694312E+09   1.00694312E+09
   3.14000000E-02   1.03694423E+09   6.18924743E+08   6.18924743E+08   7.46727357E+08   9.84158279E+08   9.84158279E+08
   3.16000000E-02   1.01467878E+09   6.03606468E+08   6.03606468E+08   7.25295264E+08   9.61835043E+08   9.61835043E+08
   3.18000000E-02   9.92827943E+08   5.88673585E+08   5.88673585E+08   7.04443427E+08   9.39966300E+08   9.39966300E+08
   3.20000000E-02   9.71386299E+08   5.74115995E+08   5.74115995E+08   6.84158449E+08   9.18544938E+08   9.18544938E+08
   3.22000000E-02   9.50348419E+08   5.59923871E+08   5.59923871E+08   6.64427110E+08   8.97563859E+08   8.97563859E+08
   3.24000000E-02   9.29708849E+08   5.46087653E+08   5.46087653E+08   6.45236366E+08   8.77015981E+08   8.77015981E+08
   3.26000000E-02   9.09462125E+08   5.32598038E+08   5.32598038E+08   6.26573357E+08   8.56894245E+08   8.56894245E+08
   3.28000000E-02   8.89602771E+08   5.19445977E+08   5.19445977E+08   6.08425413E+08   8.37191622E+08   8.37191622E+08
