# TBinMid=1.25 ssec TBinWidth=0.1 ss EBinWidth=0.2MeV Fluence at Earth for this timebin in neutrinos per cm^2
# E(GeV)	NuE	NuMu	NuTau	aNuE	aNuMu	aNuTau
   1.38589050E-13   3.16008957E-06   1.65181220E-06   1.65181220E-06   1.03139471E-06   2.71615963E-06   2.71615963E-06
   2.00000000E-04   4.85852019E+07   2.76425532E+07   2.76425532E+07   1.62155929E+07   4.17620666E+07   4.17620666E+07
   4.00000000E-04   1.28429396E+08   7.97084828E+07   7.97084828E+07   4.44073181E+07   1.10513049E+08   1.10513049E+08
   6.00000000E-04   2.24247324E+08   1.50784034E+08   1.50784034E+08   8.07646237E+07   1.93297257E+08   1.93297257E+08
   8.00000000E-04   3.30391630E+08   2.38850794E+08   2.38850794E+08   1.24264850E+08   2.85418965E+08   2.85418965E+08
   1.00000000E-03   4.43497440E+08   3.42224906E+08   3.42224906E+08   1.74371362E+08   3.84114881E+08   3.84114881E+08
   1.20000000E-03   5.61248140E+08   4.59244086E+08   4.59244086E+08   2.30687047E+08   4.87494404E+08   4.87494404E+08
   1.40000000E-03   6.81926104E+08   5.88224532E+08   5.88224532E+08   2.92847708E+08   5.94155864E+08   5.94155864E+08
   1.60000000E-03   8.04200517E+08   7.27474590E+08   7.27474590E+08   3.60483755E+08   7.03006863E+08   7.03006863E+08
   1.80000000E-03   9.27010957E+08   8.75319811E+08   8.75319811E+08   4.33207167E+08   8.13166933E+08   8.13166933E+08
   2.00000000E-03   1.04949679E+09   1.03012725E+09   1.03012725E+09   5.10609045E+08   9.23909442E+08   9.23909442E+08
   2.20000000E-03   1.17095111E+09   1.19032569E+09   1.19032569E+09   5.92261833E+08   1.03462444E+09   1.03462444E+09
   2.40000000E-03   1.29078895E+09   1.35442127E+09   1.35442127E+09   6.77723513E+08   1.14479357E+09   1.14479357E+09
   2.60000000E-03   1.40852443E+09   1.52100881E+09   1.52100881E+09   7.66542499E+08   1.25397249E+09   1.25397249E+09
   2.80000000E-03   1.52375361E+09   1.68877951E+09   1.68877951E+09   8.58262559E+08   1.36177797E+09   1.36177797E+09
   3.00000000E-03   1.63614136E+09   1.85652556E+09   1.85652556E+09   9.52427464E+08   1.46787827E+09   1.46787827E+09
   3.20000000E-03   1.74541096E+09   2.02314231E+09   2.02314231E+09   1.04858520E+09   1.57198578E+09   1.57198578E+09
   3.40000000E-03   1.85133575E+09   2.18762837E+09   2.18762837E+09   1.14629167E+09   1.67385109E+09   1.67385109E+09
   3.60000000E-03   1.95373228E+09   2.34908427E+09   2.34908427E+09   1.24511391E+09   1.77325836E+09   1.77325836E+09
   3.80000000E-03   2.05245460E+09   2.50670976E+09   2.50670976E+09   1.34463280E+09   1.87002146E+09   1.87002146E+09
   4.00000000E-03   2.14738944E+09   2.65980031E+09   2.65980031E+09   1.44444527E+09   1.96398074E+09   1.96398074E+09
   4.20000000E-03   2.23845211E+09   2.80774285E+09   2.80774285E+09   1.54416615E+09   2.05500035E+09   2.05500035E+09
   4.40000000E-03   2.32558298E+09   2.95001103E+09   2.95001103E+09   1.64342958E+09   2.14296588E+09   2.14296588E+09
   4.60000000E-03   2.40874441E+09   3.08616023E+09   3.08616023E+09   1.74189008E+09   2.22778237E+09   2.22778237E+09
   4.80000000E-03   2.48791806E+09   3.21582226E+09   3.21582226E+09   1.83922332E+09   2.30937254E+09   2.30937254E+09
   5.00000000E-03   2.56310257E+09   3.33870006E+09   3.33870006E+09   1.93512660E+09   2.38767516E+09   2.38767516E+09
   5.20000000E-03   2.63431146E+09   3.45456237E+09   3.45456237E+09   2.02931912E+09   2.46264368E+09   2.46264368E+09
   5.40000000E-03   2.70157128E+09   3.56323845E+09   3.56323845E+09   2.12154200E+09   2.53424498E+09   2.53424498E+09
   5.60000000E-03   2.76492001E+09   3.66461300E+09   3.66461300E+09   2.21155817E+09   2.60245813E+09   2.60245813E+09
   5.80000000E-03   2.82440555E+09   3.75862108E+09   3.75862108E+09   2.29915207E+09   2.66727342E+09   2.66727342E+09
   6.00000000E-03   2.88008445E+09   3.84524341E+09   3.84524341E+09   2.38412922E+09   2.72869131E+09   2.72869131E+09
   6.20000000E-03   2.93202072E+09   3.92450174E+09   3.92450174E+09   2.46631570E+09   2.78672161E+09   2.78672161E+09
   6.40000000E-03   2.98028478E+09   3.99645451E+09   3.99645451E+09   2.54555754E+09   2.84138258E+09   2.84138258E+09
   6.60000000E-03   3.02495253E+09   4.06119276E+09   4.06119276E+09   2.62172003E+09   2.89270021E+09   2.89270021E+09
   6.80000000E-03   3.06610448E+09   4.11883627E+09   4.11883627E+09   2.69468696E+09   2.94070746E+09   2.94070746E+09
   7.00000000E-03   3.10382499E+09   4.16952990E+09   4.16952990E+09   2.76435982E+09   2.98544366E+09   2.98544366E+09
   7.20000000E-03   3.13820160E+09   4.21344027E+09   4.21344027E+09   2.83065700E+09   3.02695381E+09   3.02695381E+09
   7.40000000E-03   3.16932441E+09   4.25075259E+09   4.25075259E+09   2.89351294E+09   3.06528806E+09   3.06528806E+09
   7.60000000E-03   3.19728548E+09   4.28166781E+09   4.28166781E+09   2.95287722E+09   3.10050112E+09   3.10050112E+09
   7.80000000E-03   3.22217839E+09   4.30639988E+09   4.30639988E+09   3.00871377E+09   3.13265180E+09   3.13265180E+09
   8.00000000E-03   3.24409779E+09   4.32517337E+09   4.32517337E+09   3.06099991E+09   3.16180251E+09   3.16180251E+09
   8.20000000E-03   3.26313893E+09   4.33822120E+09   4.33822120E+09   3.10972557E+09   3.18801882E+09   3.18801882E+09
   8.40000000E-03   3.27939739E+09   4.34578258E+09   4.34578258E+09   3.15489239E+09   3.21136905E+09   3.21136905E+09
   8.60000000E-03   3.29296870E+09   4.34810119E+09   4.34810119E+09   3.19651291E+09   3.23192389E+09   3.23192389E+09
   8.80000000E-03   3.30394808E+09   4.34542350E+09   4.34542350E+09   3.23460974E+09   3.24975602E+09   3.24975602E+09
   9.00000000E-03   3.31243017E+09   4.33799725E+09   4.33799725E+09   3.26921479E+09   3.26493980E+09   3.26493980E+09
   9.20000000E-03   3.31850881E+09   4.32607012E+09   4.32607012E+09   3.30036844E+09   3.27755096E+09   3.27755096E+09
   9.40000000E-03   3.32227687E+09   4.30988854E+09   4.30988854E+09   3.32811890E+09   3.28766629E+09   3.28766629E+09
   9.60000000E-03   3.32382602E+09   4.28969659E+09   4.28969659E+09   3.35252140E+09   3.29536337E+09   3.29536337E+09
   9.80000000E-03   3.32324663E+09   4.26573512E+09   4.26573512E+09   3.37363756E+09   3.30072035E+09   3.30072035E+09
   1.00000000E-02   3.32062761E+09   4.23824088E+09   4.23824088E+09   3.39153470E+09   3.30381570E+09   3.30381570E+09
   1.02000000E-02   3.31605629E+09   4.20744586E+09   4.20744586E+09   3.40628525E+09   3.30472798E+09   3.30472798E+09
   1.04000000E-02   3.30961835E+09   4.17357666E+09   4.17357666E+09   3.41796614E+09   3.30353569E+09   3.30353569E+09
   1.06000000E-02   3.30139770E+09   4.13685400E+09   4.13685400E+09   3.42665823E+09   3.30031705E+09   3.30031705E+09
   1.08000000E-02   3.29147644E+09   4.09749226E+09   4.09749226E+09   3.43244577E+09   3.29514983E+09   3.29514983E+09
   1.10000000E-02   3.27993480E+09   4.05569917E+09   4.05569917E+09   3.43541592E+09   3.28811124E+09   3.28811124E+09
   1.12000000E-02   3.26685107E+09   4.01167548E+09   4.01167548E+09   3.43565827E+09   3.27927777E+09   3.27927777E+09
   1.14000000E-02   3.25230159E+09   3.96561481E+09   3.96561481E+09   3.43326438E+09   3.26872505E+09   3.26872505E+09
   1.16000000E-02   3.23636072E+09   3.91770343E+09   3.91770343E+09   3.42832738E+09   3.25652775E+09   3.25652775E+09
   1.18000000E-02   3.21910081E+09   3.86812019E+09   3.86812019E+09   3.42094155E+09   3.24275948E+09   3.24275948E+09
   1.20000000E-02   3.20059217E+09   3.81703644E+09   3.81703644E+09   3.41120203E+09   3.22749271E+09   3.22749271E+09
   1.22000000E-02   3.18090314E+09   3.76461605E+09   3.76461605E+09   3.39920439E+09   3.21079866E+09   3.21079866E+09
   1.24000000E-02   3.16009999E+09   3.71101538E+09   3.71101538E+09   3.38504438E+09   3.19274724E+09   3.19274724E+09
   1.26000000E-02   3.13824702E+09   3.65638335E+09   3.65638335E+09   3.36881765E+09   3.17340700E+09   3.17340700E+09
   1.28000000E-02   3.11540651E+09   3.60086155E+09   3.60086155E+09   3.35061943E+09   3.15284506E+09   3.15284506E+09
   1.30000000E-02   3.09163876E+09   3.54458431E+09   3.54458431E+09   3.33054433E+09   3.13112707E+09   3.13112707E+09
   1.32000000E-02   3.06700210E+09   3.48767884E+09   3.48767884E+09   3.30868612E+09   3.10831715E+09   3.10831715E+09
   1.34000000E-02   3.04155293E+09   3.43026538E+09   3.43026538E+09   3.28513751E+09   3.08447789E+09   3.08447789E+09
   1.36000000E-02   3.01534574E+09   3.37245736E+09   3.37245736E+09   3.25998998E+09   3.05967029E+09   3.05967029E+09
   1.38000000E-02   2.98843312E+09   3.31436157E+09   3.31436157E+09   3.23333361E+09   3.03395376E+09   3.03395376E+09
   1.40000000E-02   2.96086582E+09   3.25607837E+09   3.25607837E+09   3.20525692E+09   3.00738609E+09   3.00738609E+09
   1.42000000E-02   2.93269276E+09   3.19770185E+09   3.19770185E+09   3.17584678E+09   2.98002345E+09   2.98002345E+09
   1.44000000E-02   2.90396108E+09   3.13932008E+09   3.13932008E+09   3.14518825E+09   2.95192038E+09   2.95192038E+09
   1.46000000E-02   2.87471616E+09   3.08101526E+09   3.08101526E+09   3.11336450E+09   2.92312977E+09   2.92312977E+09
   1.48000000E-02   2.84500167E+09   3.02286400E+09   3.02286400E+09   3.08045671E+09   2.89370288E+09   2.89370288E+09
   1.50000000E-02   2.81485960E+09   2.96493747E+09   2.96493747E+09   3.04654402E+09   2.86368936E+09   2.86368936E+09
   1.52000000E-02   2.78433032E+09   2.90730166E+09   2.90730166E+09   3.01170344E+09   2.83313721E+09   2.83313721E+09
   1.54000000E-02   2.75345259E+09   2.85001757E+09   2.85001757E+09   2.97600980E+09   2.80209283E+09   2.80209283E+09
   1.56000000E-02   2.72226359E+09   2.79314145E+09   2.79314145E+09   2.93953573E+09   2.77060104E+09   2.77060104E+09
   1.58000000E-02   2.69079901E+09   2.73672500E+09   2.73672500E+09   2.90235160E+09   2.73870506E+09   2.73870506E+09
   1.60000000E-02   2.65909306E+09   2.68081555E+09   2.68081555E+09   2.86452552E+09   2.70644656E+09   2.70644656E+09
   1.62000000E-02   2.62717849E+09   2.62545632E+09   2.62545632E+09   2.82612330E+09   2.67386567E+09   2.67386567E+09
   1.64000000E-02   2.59508667E+09   2.57068661E+09   2.57068661E+09   2.78720847E+09   2.64100099E+09   2.64100099E+09
   1.66000000E-02   2.56284759E+09   2.51654195E+09   2.51654195E+09   2.74784224E+09   2.60788965E+09   2.60788965E+09
   1.68000000E-02   2.53048994E+09   2.46305436E+09   2.46305436E+09   2.70808356E+09   2.57456729E+09   2.57456729E+09
   1.70000000E-02   2.49804112E+09   2.41025251E+09   2.41025251E+09   2.66798909E+09   2.54106812E+09   2.54106812E+09
   1.72000000E-02   2.46552727E+09   2.35816188E+09   2.35816188E+09   2.62761322E+09   2.50742495E+09   2.50742495E+09
   1.74000000E-02   2.43297335E+09   2.30680500E+09   2.30680500E+09   2.58700809E+09   2.47366917E+09   2.47366917E+09
   1.76000000E-02   2.40040314E+09   2.25620155E+09   2.25620155E+09   2.54622366E+09   2.43983086E+09   2.43983086E+09
   1.78000000E-02   2.36783930E+09   2.20636857E+09   2.20636857E+09   2.50530767E+09   2.40593874E+09   2.40593874E+09
   1.80000000E-02   2.33530336E+09   2.15732063E+09   2.15732063E+09   2.46430573E+09   2.37202027E+09   2.37202027E+09
   1.82000000E-02   2.30281583E+09   2.10906994E+09   2.10906994E+09   2.42326132E+09   2.33810164E+09   2.33810164E+09
   1.84000000E-02   2.27039619E+09   2.06162653E+09   2.06162653E+09   2.38221584E+09   2.30420778E+09   2.30420778E+09
   1.86000000E-02   2.23806290E+09   2.01499839E+09   2.01499839E+09   2.34120868E+09   2.27036248E+09   2.27036248E+09
   1.88000000E-02   2.20583351E+09   1.96919162E+09   1.96919162E+09   2.30027721E+09   2.23658831E+09   2.23658831E+09
   1.90000000E-02   2.17372460E+09   1.92421051E+09   1.92421051E+09   2.25945687E+09   2.20290676E+09   2.20290676E+09
   1.92000000E-02   2.14175190E+09   1.88005772E+09   1.88005772E+09   2.21878121E+09   2.16933817E+09   2.16933817E+09
   1.94000000E-02   2.10993024E+09   1.83673437E+09   1.83673437E+09   2.17828191E+09   2.13590185E+09   2.13590185E+09
   1.96000000E-02   2.07827365E+09   1.79424016E+09   1.79424016E+09   2.13798885E+09   2.10261606E+09   2.10261606E+09
   1.98000000E-02   2.04679536E+09   1.75257349E+09   1.75257349E+09   2.09793019E+09   2.06949806E+09   2.06949806E+09
   2.00000000E-02   2.01550781E+09   1.71173152E+09   1.71173152E+09   2.05813237E+09   2.03656412E+09   2.03656412E+09
   2.02000000E-02   1.98442271E+09   1.67171034E+09   1.67171034E+09   2.01862016E+09   2.00382961E+09   2.00382961E+09
   2.04000000E-02   1.95355106E+09   1.63250498E+09   1.63250498E+09   1.97941678E+09   1.97130895E+09   1.97130895E+09
   2.06000000E-02   1.92290316E+09   1.59410957E+09   1.59410957E+09   1.94054387E+09   1.93901571E+09   1.93901571E+09
   2.08000000E-02   1.89248867E+09   1.55651736E+09   1.55651736E+09   1.90202160E+09   1.90696258E+09   1.90696258E+09
   2.10000000E-02   1.86231659E+09   1.51972086E+09   1.51972086E+09   1.86386869E+09   1.87516145E+09   1.87516145E+09
   2.12000000E-02   1.83239532E+09   1.48371185E+09   1.48371185E+09   1.82610246E+09   1.84362343E+09   1.84362343E+09
   2.14000000E-02   1.80273267E+09   1.44848151E+09   1.44848151E+09   1.78873892E+09   1.81235885E+09   1.81235885E+09
   2.16000000E-02   1.77333589E+09   1.41402043E+09   1.41402043E+09   1.75179275E+09   1.78137731E+09   1.78137731E+09
   2.18000000E-02   1.74421170E+09   1.38031871E+09   1.38031871E+09   1.71527744E+09   1.75068770E+09   1.75068770E+09
   2.20000000E-02   1.71536626E+09   1.34736600E+09   1.34736600E+09   1.67920524E+09   1.72029824E+09   1.72029824E+09
   2.22000000E-02   1.68680528E+09   1.31515157E+09   1.31515157E+09   1.64358730E+09   1.69021650E+09   1.69021650E+09
   2.24000000E-02   1.65853396E+09   1.28366433E+09   1.28366433E+09   1.60843366E+09   1.66044941E+09   1.66044941E+09
   2.26000000E-02   1.63055706E+09   1.25289291E+09   1.25289291E+09   1.57375331E+09   1.63100331E+09   1.63100331E+09
   2.28000000E-02   1.60287889E+09   1.22282569E+09   1.22282569E+09   1.53955423E+09   1.60188394E+09   1.60188394E+09
   2.30000000E-02   1.57550335E+09   1.19345082E+09   1.19345082E+09   1.50584346E+09   1.57309653E+09   1.57309653E+09
   2.32000000E-02   1.54843393E+09   1.16475631E+09   1.16475631E+09   1.47262713E+09   1.54464573E+09   1.54464573E+09
   2.34000000E-02   1.52167374E+09   1.13673001E+09   1.13673001E+09   1.43991048E+09   1.51653571E+09   1.51653571E+09
   2.36000000E-02   1.49522552E+09   1.10935969E+09   1.10935969E+09   1.40769792E+09   1.48877016E+09   1.48877016E+09
   2.38000000E-02   1.46909165E+09   1.08263301E+09   1.08263301E+09   1.37599309E+09   1.46135229E+09   1.46135229E+09
   2.40000000E-02   1.44327420E+09   1.05653762E+09   1.05653762E+09   1.34479887E+09   1.43428487E+09   1.43428487E+09
   2.42000000E-02   1.41777490E+09   1.03106115E+09   1.03106115E+09   1.31411742E+09   1.40757026E+09   1.40757026E+09
   2.44000000E-02   1.39259518E+09   1.00619121E+09   1.00619121E+09   1.28395025E+09   1.38121040E+09   1.38121040E+09
   2.46000000E-02   1.36773618E+09   9.81915456E+08   9.81915456E+08   1.25429820E+09   1.35520686E+09   1.35520686E+09
   2.48000000E-02   1.34319876E+09   9.58221589E+08   9.58221589E+08   1.22516153E+09   1.32956083E+09   1.32956083E+09
   2.50000000E-02   1.31898351E+09   9.35097370E+08   9.35097370E+08   1.19653993E+09   1.30427317E+09   1.30427317E+09
   2.52000000E-02   1.29509078E+09   9.12530646E+08   9.12530646E+08   1.16843253E+09   1.27934439E+09   1.27934439E+09
   2.54000000E-02   1.27152068E+09   8.90509360E+08   8.90509360E+08   1.14083798E+09   1.25477470E+09   1.25477470E+09
   2.56000000E-02   1.24827309E+09   8.69021565E+08   8.69021565E+08   1.11375444E+09   1.23056400E+09   1.23056400E+09
   2.58000000E-02   1.22534766E+09   8.48055437E+08   8.48055437E+08   1.08717963E+09   1.20671193E+09   1.20671193E+09
   2.60000000E-02   1.20274387E+09   8.27599285E+08   8.27599285E+08   1.06111085E+09   1.18321785E+09   1.18321785E+09
   2.62000000E-02   1.18046096E+09   8.07641564E+08   8.07641564E+08   1.03554502E+09   1.16008086E+09   1.16008086E+09
   2.64000000E-02   1.15849804E+09   7.88170880E+08   7.88170880E+08   1.01047868E+09   1.13729982E+09   1.13729982E+09
   2.66000000E-02   1.13685399E+09   7.69176000E+08   7.69176000E+08   9.85908027E+08   1.11487339E+09   1.11487339E+09
   2.68000000E-02   1.11552757E+09   7.50645857E+08   7.50645857E+08   9.61828968E+08   1.09279999E+09   1.09279999E+09
   2.70000000E-02   1.09451736E+09   7.32569557E+08   7.32569557E+08   9.38237098E+08   1.07107787E+09   1.07107787E+09
   2.72000000E-02   1.07382181E+09   7.14936385E+08   7.14936385E+08   9.15127748E+08   1.04970505E+09   1.04970505E+09
   2.74000000E-02   1.05343921E+09   6.97735806E+08   6.97735806E+08   8.92496001E+08   1.02867942E+09   1.02867942E+09
   2.76000000E-02   1.03336774E+09   6.80957473E+08   6.80957473E+08   8.70336711E+08   1.00799868E+09   1.00799868E+09
   2.78000000E-02   1.01360544E+09   6.64591225E+08   6.64591225E+08   8.48644525E+08   9.87660375E+08   9.87660375E+08
   2.80000000E-02   9.94150264E+08   6.48627093E+08   6.48627093E+08   8.27413898E+08   9.67661922E+08   9.67661922E+08
   2.82000000E-02   9.75000028E+08   6.33055299E+08   6.33055299E+08   8.06639115E+08   9.48000593E+08   9.48000593E+08
   2.84000000E-02   9.56152461E+08   6.17866260E+08   6.17866260E+08   7.86314303E+08   9.28673537E+08   9.28673537E+08
   2.86000000E-02   9.37605199E+08   6.03050586E+08   6.03050586E+08   7.66433451E+08   9.09677791E+08   9.09677791E+08
   2.88000000E-02   9.19355787E+08   5.88599081E+08   5.88599081E+08   7.46990426E+08   8.91010284E+08   8.91010284E+08
   2.90000000E-02   9.01401691E+08   5.74502744E+08   5.74502744E+08   7.27978981E+08   8.72667846E+08   8.72667846E+08
   2.92000000E-02   8.83740298E+08   5.60752767E+08   5.60752767E+08   7.09392778E+08   8.54647220E+08   8.54647220E+08
   2.94000000E-02   8.66368930E+08   5.47340534E+08   5.47340534E+08   6.91225395E+08   8.36945063E+08   8.36945063E+08
   2.96000000E-02   8.49284840E+08   5.34257621E+08   5.34257621E+08   6.73470339E+08   8.19557959E+08   8.19557959E+08
   2.98000000E-02   8.32485223E+08   5.21495793E+08   5.21495793E+08   6.56121059E+08   8.02482423E+08   8.02482423E+08
   3.00000000E-02   8.15967221E+08   5.09047004E+08   5.09047004E+08   6.39170959E+08   7.85714910E+08   7.85714910E+08
   3.02000000E-02   7.99727925E+08   4.96903395E+08   4.96903395E+08   6.22613404E+08   7.69251817E+08   7.69251817E+08
   3.04000000E-02   7.83764380E+08   4.85057290E+08   4.85057290E+08   6.06441735E+08   7.53089494E+08   7.53089494E+08
   3.06000000E-02   7.68073592E+08   4.73501193E+08   4.73501193E+08   5.90649273E+08   7.37224247E+08   7.37224247E+08
   3.08000000E-02   7.52652529E+08   4.62227791E+08   4.62227791E+08   5.75229334E+08   7.21652343E+08   7.21652343E+08
   3.10000000E-02   7.37498126E+08   4.51229945E+08   4.51229945E+08   5.60175230E+08   7.06370019E+08   7.06370019E+08
   3.12000000E-02   7.22607290E+08   4.40500690E+08   4.40500690E+08   5.45480285E+08   6.91373481E+08   6.91373481E+08
   3.14000000E-02   7.07976902E+08   4.30033234E+08   4.30033234E+08   5.31137835E+08   6.76658914E+08   6.76658914E+08
   3.16000000E-02   6.93603822E+08   4.19820950E+08   4.19820950E+08   5.17141239E+08   6.62222484E+08   6.62222484E+08
   3.18000000E-02   6.79484890E+08   4.09857378E+08   4.09857378E+08   5.03483885E+08   6.48060342E+08   6.48060342E+08
   3.20000000E-02   6.65616930E+08   4.00136221E+08   4.00136221E+08   4.90159195E+08   6.34168630E+08   6.34168630E+08
   3.22000000E-02   6.51996756E+08   3.90651339E+08   3.90651339E+08   4.77160629E+08   6.20543483E+08   6.20543483E+08
   3.24000000E-02   6.38621171E+08   3.81396749E+08   3.81396749E+08   4.64481696E+08   6.07181032E+08   6.07181032E+08
   3.26000000E-02   6.25486970E+08   3.72366619E+08   3.72366619E+08   4.52115950E+08   5.94077409E+08   5.94077409E+08
   3.28000000E-02   6.12590945E+08   3.63555269E+08   3.63555269E+08   4.40057003E+08   5.81228751E+08   5.81228751E+08
